-2.862930000000000197e-01
-2.924379999999999757e-01
-2.948509999999999742e-01
-2.828999999999999848e-01
-3.019410000000000149e-01
-3.027159999999999851e-01
-2.967460000000000098e-01
-3.057300000000000018e-01
-2.862959999999999949e-01
-2.944700000000000095e-01
-2.978399999999999936e-01
-2.863029999999999742e-01
-3.115539999999999976e-01
-2.887489999999999779e-01
-2.999439999999999884e-01
-2.880119999999999902e-01
-2.912109999999999976e-01
-2.853559999999999985e-01
-2.801580000000000181e-01
-3.070280000000000231e-01
-2.971670000000000145e-01
-2.819630000000000192e-01
-2.893789999999999973e-01
-2.942279999999999895e-01
-2.861090000000000022e-01
-2.866369999999999751e-01
-2.915289999999999826e-01
-2.983529999999999793e-01
-2.828789999999999916e-01
-2.944280000000000230e-01
-2.850280000000000036e-01
-3.083210000000000117e-01
-2.949789999999999912e-01
-2.903490000000000237e-01
-2.970929999999999960e-01
-2.954030000000000267e-01
-3.013319999999999887e-01
-2.909900000000000264e-01
-2.926819999999999977e-01
-2.944109999999999783e-01
-2.894479999999999831e-01
-2.995090000000000252e-01
-2.809159999999999990e-01
-2.931770000000000209e-01
-3.006320000000000103e-01
-3.028210000000000068e-01
-2.864090000000000247e-01
-2.962049999999999961e-01
-2.879470000000000085e-01
-2.888870000000000049e-01
-2.994200000000000195e-01
-2.856339999999999990e-01
-3.129199999999999759e-01
-2.943720000000000225e-01
-3.127369999999999872e-01
-2.892040000000000166e-01
-2.845349999999999824e-01
-2.864010000000000167e-01
-3.087349999999999817e-01
-2.866339999999999999e-01
-2.899829999999999908e-01
-2.919479999999999853e-01
-2.874530000000000141e-01
-3.046760000000000024e-01
-3.007009999999999961e-01
-2.909289999999999932e-01
-2.884149999999999769e-01
-2.910440000000000249e-01
-2.773209999999999842e-01
-2.893819999999999726e-01
-2.828809999999999936e-01
-3.103589999999999960e-01
-2.929350000000000009e-01
-2.889820000000000166e-01
-2.831370000000000275e-01
-2.876409999999999800e-01
-2.891489999999999894e-01
-2.903029999999999777e-01
-2.901130000000000098e-01
-2.893990000000000173e-01
-2.955969999999999986e-01
-3.119239999999999791e-01
-2.947100000000000275e-01
-2.989539999999999975e-01
-2.940119999999999956e-01
-2.862939999999999929e-01
-2.773579999999999934e-01
-2.943930000000000158e-01
-2.886759999999999882e-01
-3.058910000000000240e-01
-2.893240000000000256e-01
-2.886799999999999922e-01
-2.830799999999999983e-01
-3.089000000000000079e-01
-2.979899999999999771e-01
-2.953850000000000087e-01
-2.980200000000000071e-01
-2.952290000000000192e-01
-2.997279999999999944e-01
-2.943990000000000218e-01
-2.881690000000000085e-01
-3.053960000000000008e-01
-2.855719999999999925e-01
-2.851739999999999831e-01
-2.708800000000000097e-01
-2.970450000000000035e-01
-2.843280000000000252e-01
-2.919889999999999985e-01
-2.923129999999999895e-01
-2.835250000000000270e-01
-2.874309999999999921e-01
-2.925170000000000270e-01
-3.011300000000000088e-01
-2.979939999999999811e-01
-3.064990000000000214e-01
-3.063969999999999749e-01
-3.040640000000000009e-01
-2.815070000000000072e-01
-2.917930000000000246e-01
-3.005920000000000258e-01
-3.045350000000000001e-01
-3.067779999999999951e-01
-3.121720000000000050e-01
-2.940940000000000221e-01
-2.853800000000000225e-01
-2.898760000000000225e-01
-2.901190000000000158e-01
-2.985079999999999956e-01
-3.023509999999999809e-01
-2.881099999999999772e-01
-3.098620000000000263e-01
-2.870440000000000214e-01
-2.823669999999999791e-01
-3.029029999999999778e-01
-2.919959999999999778e-01
-3.008089999999999931e-01
-2.859129999999999727e-01
-2.889439999999999786e-01
-3.038330000000000197e-01
-2.806089999999999973e-01
-2.894889999999999963e-01
-2.884220000000000117e-01
-2.810790000000000233e-01
-2.863919999999999799e-01
-2.816069999999999962e-01
-2.973100000000000187e-01
-2.915070000000000161e-01
-2.950670000000000237e-01
-3.027340000000000031e-01
-2.991079999999999850e-01
-2.959979999999999833e-01
-2.967989999999999795e-01
-2.894959999999999756e-01
-3.012730000000000130e-01
-2.830940000000000123e-01
-2.872899999999999898e-01
-2.904880000000000240e-01
-2.917310000000000181e-01
-2.858180000000000165e-01
-2.932839999999999892e-01
-3.135629999999999806e-01
-3.085870000000000002e-01
-3.011340000000000128e-01
-2.941280000000000006e-01
-3.078359999999999985e-01
-2.845539999999999736e-01
-3.005729999999999791e-01
-2.810699999999999865e-01
-2.908020000000000049e-01
-2.887469999999999759e-01
-2.827370000000000161e-01
-2.997540000000000204e-01
-2.942629999999999968e-01
-2.861130000000000062e-01
-2.816299999999999915e-01
-2.959860000000000269e-01
-2.922230000000000105e-01
-3.092190000000000216e-01
-2.873379999999999823e-01
-2.752410000000000134e-01
-2.881940000000000057e-01
-2.854229999999999823e-01
-2.829709999999999726e-01
-3.074839999999999796e-01
-2.965659999999999963e-01
-2.874419999999999753e-01
-2.961520000000000263e-01
-2.923459999999999948e-01
-3.063600000000000212e-01
-2.985490000000000088e-01
-3.071070000000000189e-01
-2.827859999999999818e-01
-2.877359999999999918e-01
-2.890429999999999944e-01
-2.872999999999999998e-01
-2.834809999999999830e-01
-2.879590000000000205e-01
-2.985389999999999988e-01
-2.931250000000000244e-01
-2.911639999999999784e-01
-2.868870000000000031e-01
-2.974160000000000137e-01
-2.818470000000000142e-01
-2.858629999999999782e-01
-2.801750000000000074e-01
-3.132440000000000224e-01
-2.869389999999999996e-01
-3.089850000000000096e-01
-2.933310000000000084e-01
-3.001039999999999819e-01
-2.831540000000000168e-01
-2.869300000000000184e-01
-2.990510000000000113e-01
-2.923939999999999872e-01
-2.896150000000000113e-01
-2.942230000000000123e-01
-2.848809999999999953e-01
-3.098750000000000115e-01
-2.931920000000000082e-01
-2.979289999999999994e-01
-2.871380000000000043e-01
-2.914249999999999896e-01
-2.959459999999999869e-01
-2.931349999999999789e-01
-2.859309999999999907e-01
-2.861989999999999812e-01
-2.859059999999999935e-01
-2.999260000000000259e-01
-2.978680000000000216e-01
-2.970789999999999820e-01
-2.853160000000000140e-01
-2.831560000000000188e-01
-2.852270000000000083e-01
-2.898249999999999993e-01
-2.859300000000000175e-01
-2.843390000000000084e-01
-2.878569999999999740e-01
-2.941739999999999911e-01
-3.042320000000000024e-01
-2.893069999999999808e-01
-2.764920000000000155e-01
-3.081789999999999807e-01
-2.844780000000000086e-01
-2.829929999999999946e-01
-2.881810000000000205e-01
-2.926869999999999750e-01
-2.871199999999999863e-01
-2.875229999999999730e-01
-3.059689999999999910e-01
-3.042170000000000152e-01
-2.881319999999999992e-01
-2.877319999999999878e-01
-2.830860000000000043e-01
-3.031229999999999758e-01
-2.894329999999999958e-01
-2.800869999999999749e-01
-2.838550000000000240e-01
-3.077739999999999920e-01
-2.864909999999999957e-01
-2.853600000000000025e-01
-3.005140000000000033e-01
-2.866639999999999744e-01
-2.851719999999999811e-01
-2.942560000000000175e-01
-2.802529999999999744e-01
-3.048859999999999904e-01
-2.804559999999999831e-01
-2.923250000000000015e-01
-2.895329999999999848e-01
-2.914780000000000149e-01
-2.863780000000000214e-01
-2.872250000000000081e-01
-3.056150000000000255e-01
-2.844979999999999731e-01
-2.894260000000000166e-01
-3.001530000000000031e-01
-2.939289999999999958e-01
-2.971699999999999897e-01
-2.839329999999999909e-01
-3.071760000000000046e-01
-2.954140000000000099e-01
-2.871409999999999796e-01
-3.010189999999999810e-01
-2.817580000000000084e-01
-3.081720000000000015e-01
-2.891759999999999886e-01
-2.969530000000000225e-01
-2.846369999999999734e-01
-2.971289999999999765e-01
-2.899900000000000255e-01
-2.880110000000000170e-01
-2.966920000000000113e-01
-2.934300000000000241e-01
-2.973129999999999939e-01
-2.930949999999999944e-01
-2.900940000000000185e-01
-2.898350000000000093e-01
-2.828039999999999998e-01
-2.932100000000000262e-01
-2.819909999999999917e-01
-2.904360000000000275e-01
-2.945269999999999833e-01
-2.959649999999999781e-01
-2.928620000000000112e-01
-2.969479999999999897e-01
-3.166300000000000225e-01
-2.945800000000000085e-01
-3.113839999999999941e-01
-2.939260000000000206e-01
-2.985070000000000223e-01
-2.963080000000000158e-01
-2.954180000000000139e-01
-2.868720000000000159e-01
-2.943740000000000245e-01
-3.008359999999999923e-01
-2.861859999999999959e-01
-2.903229999999999977e-01
-2.854979999999999740e-01
-2.876549999999999940e-01
-2.939280000000000226e-01
-2.774630000000000152e-01
-2.861650000000000027e-01
-2.884619999999999962e-01
-2.804180000000000006e-01
-3.162829999999999808e-01
-2.900989999999999958e-01
-2.900880000000000125e-01
-2.964470000000000161e-01
-2.854430000000000023e-01
-3.110249999999999959e-01
-3.087670000000000137e-01
-2.872979999999999978e-01
-2.871029999999999971e-01
-3.064049999999999829e-01
-3.011220000000000008e-01
-2.955749999999999766e-01
-2.842609999999999859e-01
-2.879209999999999825e-01
-2.969760000000000177e-01
-2.838939999999999797e-01
-3.050479999999999858e-01
-2.944109999999999783e-01
-2.967560000000000198e-01
-2.909590000000000232e-01
-2.958410000000000206e-01
-2.907489999999999797e-01
-2.809159999999999990e-01
-2.972600000000000242e-01
-2.889920000000000266e-01
-3.034430000000000183e-01
-2.889909999999999979e-01
-2.890110000000000179e-01
-2.874510000000000121e-01
-2.902759999999999785e-01
-2.901029999999999998e-01
-2.814619999999999900e-01
-2.992130000000000067e-01
-2.882440000000000002e-01
-2.885559999999999792e-01
-3.040709999999999802e-01
-2.798729999999999829e-01
-2.789909999999999890e-01
-2.844200000000000061e-01
-2.917739999999999778e-01
-2.952839999999999909e-01
-3.122030000000000083e-01
-2.950920000000000210e-01
-2.893169999999999908e-01
-2.902560000000000140e-01
-2.931349999999999789e-01
-2.985129999999999728e-01
-2.863040000000000029e-01
-2.802879999999999816e-01
-2.925800000000000067e-01
-2.958129999999999926e-01
-2.799579999999999846e-01
-2.824960000000000249e-01
-2.932640000000000247e-01
-2.910840000000000094e-01
-2.895710000000000228e-01
-3.030669999999999753e-01
-2.847740000000000271e-01
-2.828939999999999788e-01
-3.038040000000000185e-01
-3.059780000000000277e-01
-3.117320000000000091e-01
-2.755889999999999729e-01
-2.901299999999999990e-01
-2.849079999999999946e-01
-3.126539999999999875e-01
-2.897509999999999808e-01
-2.934490000000000154e-01
-2.791460000000000052e-01
-2.984760000000000191e-01
-2.886569999999999969e-01
-3.023460000000000036e-01
-2.881529999999999925e-01
-2.894990000000000063e-01
-2.857480000000000020e-01
-2.866250000000000187e-01
-2.850469999999999948e-01
-2.855730000000000213e-01
-2.798740000000000117e-01
-3.112360000000000126e-01
-2.880730000000000235e-01
-3.004600000000000048e-01
-2.937230000000000119e-01
-3.005519999999999858e-01
-2.892109999999999959e-01
-2.910070000000000157e-01
-2.926770000000000205e-01
-2.898689999999999878e-01
-2.907500000000000084e-01
-3.005789999999999851e-01
-3.044430000000000192e-01
-2.880619999999999847e-01
-2.800860000000000016e-01
-2.809679999999999955e-01
-3.035800000000000165e-01
-2.913100000000000134e-01
-2.897640000000000216e-01
-3.023850000000000149e-01
-2.893850000000000033e-01
-2.796150000000000024e-01
-3.078469999999999818e-01
-3.048250000000000126e-01
-2.928459999999999952e-01
-3.078139999999999765e-01
-2.850199999999999956e-01
-3.029089999999999838e-01
-2.951849999999999752e-01
-2.897770000000000068e-01
-2.853780000000000205e-01
-2.971710000000000185e-01
-2.828899999999999748e-01
-3.065849999999999964e-01
-2.889220000000000121e-01
-3.107550000000000034e-01
-2.976570000000000049e-01
-3.130069999999999797e-01
-2.955349999999999921e-01
-2.864149999999999752e-01
-2.993190000000000017e-01
-2.836060000000000247e-01
-2.857080000000000175e-01
-3.019160000000000177e-01
-2.854570000000000163e-01
-2.799690000000000234e-01
-2.911349999999999771e-01
-3.001309999999999811e-01
-2.907100000000000239e-01
-2.866909999999999736e-01
-2.949289999999999967e-01
-2.928819999999999757e-01
-2.984280000000000266e-01
-3.056499999999999773e-01
-3.018410000000000259e-01
-3.008270000000000111e-01
-2.808530000000000193e-01
-2.853089999999999793e-01
-2.948080000000000145e-01
-2.971920000000000117e-01
-2.889669999999999739e-01
-2.833640000000000048e-01
-2.944570000000000243e-01
-3.077619999999999800e-01
-3.030120000000000036e-01
-3.090970000000000106e-01
-2.887819999999999832e-01
-2.872790000000000066e-01
-3.002909999999999746e-01
-2.977929999999999744e-01
-2.891400000000000081e-01
-2.939309999999999978e-01
-3.042440000000000144e-01
-3.093449999999999811e-01
-2.898919999999999830e-01
-2.856580000000000230e-01
-2.785719999999999863e-01
-2.889559999999999906e-01
-2.839829999999999854e-01
-2.950400000000000245e-01
-2.825409999999999866e-01
-3.068989999999999774e-01
-3.040660000000000029e-01
-2.854309999999999903e-01
-3.005260000000000153e-01
-2.919200000000000128e-01
-2.874920000000000253e-01
-2.845320000000000071e-01
-2.908810000000000007e-01
-2.861909999999999732e-01
-2.946010000000000018e-01
-2.924959999999999782e-01
-2.858040000000000025e-01
-3.135789999999999966e-01
-2.874209999999999821e-01
-2.988609999999999878e-01
-2.943620000000000125e-01
-2.882069999999999910e-01
-2.900789999999999758e-01
-2.910369999999999902e-01
-2.906279999999999974e-01
-2.961360000000000103e-01
-2.775440000000000129e-01
-2.813289999999999957e-01
-2.913430000000000186e-01
-3.008129999999999971e-01
-3.143670000000000075e-01
-3.032480000000000175e-01
-2.953999999999999959e-01
-3.052300000000000013e-01
-3.000630000000000241e-01
-2.901960000000000095e-01
-2.846250000000000169e-01
-2.926489999999999925e-01
-2.800560000000000271e-01
-3.077829999999999733e-01
-2.872170000000000001e-01
-2.819180000000000019e-01
-2.861029999999999962e-01
-2.917109999999999981e-01
-2.831739999999999813e-01
-3.119000000000000106e-01
-2.863010000000000277e-01
-2.967500000000000138e-01
-2.902029999999999887e-01
-2.896420000000000106e-01
-2.788470000000000115e-01
-2.867319999999999869e-01
-2.763030000000000208e-01
-3.015039999999999942e-01
-2.886250000000000204e-01
-2.793950000000000045e-01
-2.939869999999999983e-01
-3.104199999999999737e-01
-3.035649999999999737e-01
-2.880869999999999820e-01
-2.942219999999999835e-01
-3.084310000000000107e-01
-2.907230000000000092e-01
-2.867730000000000001e-01
-2.990559999999999885e-01
-2.984370000000000078e-01
-2.920240000000000058e-01
-2.962409999999999766e-01
-2.951099999999999834e-01
-3.015050000000000230e-01
-2.938160000000000216e-01
-2.899280000000000190e-01
-2.976539999999999742e-01
-2.980880000000000196e-01
-3.005689999999999751e-01
-2.975829999999999864e-01
-2.810380000000000100e-01
-2.945329999999999893e-01
-2.831150000000000055e-01
-2.842899999999999872e-01
-2.925579999999999847e-01
-2.909309999999999952e-01
-3.063480000000000092e-01
-3.035880000000000245e-01
-2.917029999999999901e-01
-2.948339999999999850e-01
-2.919689999999999785e-01
-2.900249999999999773e-01
-2.864530000000000132e-01
-2.825349999999999806e-01
-2.831719999999999793e-01
-2.898140000000000160e-01
-3.132280000000000064e-01
-2.922520000000000118e-01
-3.056170000000000275e-01
-2.951710000000000167e-01
-2.828269999999999951e-01
-2.901239999999999930e-01
-2.846600000000000241e-01
-2.870659999999999878e-01
-2.857100000000000195e-01
-3.091760000000000064e-01
-2.901850000000000263e-01
-2.983319999999999861e-01
-2.965019999999999878e-01
-2.935869999999999869e-01
-2.858049999999999757e-01
-2.862629999999999897e-01
-3.002299999999999969e-01
-3.100629999999999775e-01
-2.905010000000000092e-01
-3.112039999999999806e-01
-2.860050000000000092e-01
-2.932830000000000159e-01
-3.094529999999999781e-01
-2.932000000000000162e-01
-2.952029999999999932e-01
-2.871130000000000071e-01
-2.848660000000000081e-01
-2.809180000000000010e-01
-2.920570000000000110e-01
-2.889450000000000074e-01
-2.879289999999999905e-01
-2.999749999999999917e-01
-2.776009999999999867e-01
-3.052500000000000213e-01
-2.965550000000000130e-01
-2.926900000000000057e-01
-2.892620000000000191e-01
-2.784539999999999793e-01
-2.810610000000000053e-01
-2.919749999999999845e-01
-2.972380000000000022e-01
-2.881230000000000180e-01
-2.796020000000000172e-01
-2.960430000000000006e-01
-2.892290000000000139e-01
-3.068750000000000089e-01
-2.934889999999999999e-01
-3.081309999999999882e-01
-3.066679999999999962e-01
-2.842089999999999894e-01
-2.993870000000000142e-01
-2.937270000000000159e-01
-2.980679999999999996e-01
-2.848780000000000201e-01
-2.969089999999999785e-01
-2.970519999999999827e-01
-2.993279999999999830e-01
-3.011469999999999980e-01
-3.129089999999999927e-01
-2.888149999999999884e-01
-2.945530000000000093e-01
-2.889079999999999981e-01
-3.047360000000000069e-01
-2.873580000000000023e-01
-2.959089999999999776e-01
-2.909149999999999792e-01
-2.986630000000000118e-01
-3.005539999999999878e-01
-2.961159999999999903e-01
-2.886940000000000062e-01
-2.838030000000000275e-01
-2.895840000000000081e-01
-3.037509999999999932e-01
-2.791879999999999917e-01
-2.965519999999999823e-01
-2.892370000000000219e-01
-2.855539999999999745e-01
-3.007909999999999751e-01
-2.803599999999999981e-01
-2.925150000000000250e-01
-2.944249999999999923e-01
-2.946779999999999955e-01
-3.026860000000000106e-01
-2.794119999999999937e-01
-2.896050000000000013e-01
-2.948020000000000085e-01
-3.119660000000000211e-01
-3.019729999999999914e-01
-2.947370000000000267e-01
-2.965909999999999935e-01
-3.051780000000000048e-01
-2.836130000000000040e-01
-2.858330000000000037e-01
-2.916699999999999848e-01
-2.973950000000000204e-01
-3.012440000000000118e-01
-2.934209999999999874e-01
-2.908939999999999859e-01
-2.921500000000000208e-01
-2.856659999999999755e-01
-2.811549999999999883e-01
-2.930949999999999944e-01
-2.914599999999999969e-01
-3.021889999999999854e-01
-2.884180000000000077e-01
-2.888200000000000212e-01
-2.935409999999999964e-01
-2.819429999999999992e-01
-3.017790000000000195e-01
-2.823169999999999846e-01
-2.906670000000000087e-01
-2.907429999999999737e-01
-2.908780000000000254e-01
-3.011090000000000155e-01
-2.852589999999999848e-01
-2.870130000000000181e-01
-2.915229999999999766e-01
-3.037150000000000127e-01
-2.844229999999999814e-01
-2.868229999999999946e-01
-2.777689999999999881e-01
-2.974200000000000177e-01
-2.878479999999999928e-01
-3.063230000000000119e-01
-2.925900000000000167e-01
-2.893120000000000136e-01
-2.797129999999999894e-01
-2.862160000000000259e-01
-2.803129999999999789e-01
-2.839030000000000165e-01
-2.867759999999999754e-01
-2.849160000000000026e-01
-2.919340000000000268e-01
-2.962750000000000106e-01
-2.989789999999999948e-01
-3.034749999999999948e-01
-2.864380000000000259e-01
-2.974209999999999909e-01
-2.990900000000000225e-01
-2.871449999999999836e-01
-2.919100000000000028e-01
-2.963950000000000196e-01
-2.863840000000000274e-01
-2.831389999999999740e-01
-2.950610000000000177e-01
-3.103540000000000187e-01
-2.898140000000000160e-01
-2.911059999999999759e-01
-2.863350000000000062e-01
-2.920510000000000050e-01
-3.076139999999999985e-01
-2.947649999999999992e-01
-2.834909999999999930e-01
-2.961360000000000103e-01
-2.944410000000000083e-01
-2.947850000000000192e-01
-2.959260000000000224e-01
-2.984129999999999838e-01
-2.927290000000000170e-01
-2.891040000000000276e-01
-2.929919999999999747e-01
-3.053870000000000196e-01
-2.964510000000000201e-01
-2.960789999999999811e-01
-2.940909999999999913e-01
-3.113000000000000211e-01
-2.912500000000000089e-01
-2.945050000000000168e-01
-2.819490000000000052e-01
-3.075899999999999745e-01
-2.923000000000000043e-01
-3.031619999999999870e-01
-2.838769999999999905e-01
-2.887850000000000139e-01
-2.857819999999999805e-01
-2.857120000000000215e-01
-2.942400000000000015e-01
-2.868479999999999919e-01
-2.935019999999999851e-01
-3.098779999999999868e-01
-3.006510000000000016e-01
-2.882689999999999975e-01
-2.900659999999999905e-01
-2.798100000000000032e-01
-2.996539999999999759e-01
-2.873260000000000258e-01
-2.868100000000000094e-01
-2.902520000000000100e-01
-2.970920000000000227e-01
-2.914530000000000176e-01
-2.941070000000000073e-01
-2.902970000000000272e-01
-2.917669999999999986e-01
-3.103719999999999812e-01
-2.974189999999999889e-01
-2.827239999999999753e-01
-2.923490000000000255e-01
-2.810900000000000065e-01
-2.884349999999999969e-01
-2.955929999999999946e-01
-2.931759999999999922e-01
-2.989069999999999783e-01
-2.965110000000000245e-01
-2.821640000000000259e-01
-2.984390000000000098e-01
-2.996730000000000227e-01
-2.883069999999999800e-01
-2.883729999999999905e-01
-2.857999999999999985e-01
-2.928720000000000212e-01
-3.017449999999999855e-01
-3.003549999999999831e-01
-2.947170000000000067e-01
-3.002569999999999961e-01
-2.905860000000000110e-01
-2.931659999999999822e-01
-2.865980000000000194e-01
-2.878359999999999808e-01
-2.976579999999999782e-01
-2.839590000000000169e-01
-2.919780000000000153e-01
-2.886279999999999957e-01
-2.872179999999999733e-01
-2.943749999999999978e-01
-3.134669999999999956e-01
-2.915220000000000034e-01
-2.842899999999999872e-01
-2.999419999999999864e-01
-2.902040000000000175e-01
-2.961480000000000223e-01
-2.852489999999999748e-01
-3.082989999999999897e-01
-3.029990000000000183e-01
-2.897549999999999848e-01
-2.878140000000000143e-01
-2.852740000000000276e-01
-2.958089999999999886e-01
-2.876509999999999900e-01
-2.855320000000000080e-01
-3.058060000000000223e-01
-2.903290000000000037e-01
-2.938100000000000156e-01
-3.116189999999999793e-01
-2.846069999999999989e-01
-2.845159999999999911e-01
-2.929030000000000244e-01
-2.929649999999999754e-01
-2.879030000000000200e-01
-2.997020000000000239e-01
-2.979600000000000026e-01
-2.983979999999999966e-01
-2.942739999999999800e-01
-2.933069999999999844e-01
-3.161979999999999791e-01
-2.856969999999999787e-01
-2.874880000000000213e-01
-3.031280000000000086e-01
-2.884920000000000262e-01
-2.848430000000000129e-01
-2.967339999999999978e-01
-2.930170000000000274e-01
-3.063549999999999884e-01
-2.917870000000000186e-01
-2.898640000000000105e-01
-2.936059999999999781e-01
-2.877339999999999898e-01
-2.984080000000000066e-01
-2.974339999999999762e-01
-2.990760000000000085e-01
-3.085430000000000117e-01
-2.910159999999999969e-01
-3.020379999999999732e-01
-2.898169999999999913e-01
-3.017380000000000062e-01
-2.924800000000000177e-01
-2.937460000000000071e-01
-2.842810000000000059e-01
-2.825869999999999771e-01
-2.858850000000000002e-01
-2.860150000000000192e-01
-3.025550000000000184e-01
-2.980760000000000076e-01
-2.951520000000000254e-01
-2.995369999999999977e-01
-2.976820000000000022e-01
-3.056409999999999960e-01
-2.854639999999999955e-01
-3.109830000000000094e-01
-3.014649999999999830e-01
-2.907350000000000212e-01
-3.095879999999999743e-01
-2.927130000000000010e-01
-2.838359999999999772e-01
-2.830159999999999898e-01
-2.843539999999999957e-01
-2.932520000000000127e-01
-3.122400000000000175e-01
-2.949479999999999880e-01
-2.866250000000000187e-01
-2.809579999999999855e-01
-3.145100000000000118e-01
-2.879189999999999805e-01
-3.080060000000000020e-01
-2.784579999999999833e-01
-3.019720000000000182e-01
-3.045059999999999989e-01
-2.910519999999999774e-01
-3.103469999999999840e-01
-2.842419999999999947e-01
-2.762169999999999903e-01
-2.944800000000000195e-01
-3.013299999999999867e-01
-2.917089999999999961e-01
-2.993040000000000145e-01
-2.962009999999999921e-01
-3.087679999999999869e-01
-2.938049999999999828e-01
-2.992369999999999752e-01
-2.926520000000000232e-01
-3.001630000000000131e-01
-2.807970000000000188e-01
-2.963959999999999928e-01
-2.840639999999999832e-01
-2.801960000000000006e-01
-3.000760000000000094e-01
-3.086240000000000094e-01
-2.843640000000000057e-01
-3.045610000000000261e-01
-2.882589999999999875e-01
-2.840349999999999819e-01
-2.933930000000000149e-01
-2.825190000000000201e-01
-2.873140000000000138e-01
-2.869840000000000169e-01
-2.853269999999999973e-01
-3.102280000000000038e-01
-2.860590000000000077e-01
-2.986039999999999806e-01
-2.939359999999999751e-01
-2.980949999999999989e-01
-2.834070000000000200e-01
-2.851609999999999978e-01
-2.905960000000000210e-01
-2.886799999999999922e-01
-2.883530000000000260e-01
-3.028390000000000248e-01
-2.983979999999999966e-01
-2.856409999999999783e-01
-2.835440000000000182e-01
-2.915440000000000254e-01
-2.879419999999999757e-01
-2.989319999999999755e-01
-2.978390000000000204e-01
-2.814860000000000140e-01
-2.828490000000000171e-01
-2.830320000000000058e-01
-3.006389999999999896e-01
-2.952330000000000232e-01
-2.844920000000000226e-01
-2.789710000000000245e-01
-2.941500000000000226e-01
-2.913510000000000266e-01
-2.792669999999999875e-01
-2.975019999999999887e-01
-2.934669999999999779e-01
-2.987389999999999768e-01
-2.916579999999999728e-01
-2.816379999999999995e-01
-2.926849999999999730e-01
-2.730710000000000082e-01
-2.956150000000000166e-01
-3.014600000000000057e-01
-3.065120000000000067e-01
-3.117590000000000083e-01
-2.848019999999999996e-01
-2.918700000000000183e-01
-2.964499999999999913e-01
-2.904300000000000215e-01
-2.968419999999999948e-01
-2.797339999999999827e-01
-2.802089999999999859e-01
-2.986210000000000253e-01
-2.863010000000000277e-01
-2.894510000000000138e-01
-3.017619999999999747e-01
-3.097170000000000201e-01
-2.851659999999999751e-01
-3.065359999999999752e-01
-2.928859999999999797e-01
-3.018899999999999917e-01
-2.953230000000000022e-01
-2.881790000000000185e-01
-2.808539999999999925e-01
-3.012619999999999743e-01
-2.982349999999999723e-01
-2.780560000000000254e-01
-2.831130000000000035e-01
-2.869240000000000124e-01
-2.990829999999999878e-01
-2.908370000000000122e-01
-2.973069999999999879e-01
-3.075189999999999868e-01
-2.946840000000000015e-01
-2.950439999999999729e-01
-2.848879999999999746e-01
-2.999760000000000204e-01
-2.889639999999999986e-01
-2.898069999999999813e-01
-3.043600000000000194e-01
-2.895929999999999893e-01
-2.999339999999999784e-01
-2.999720000000000164e-01
-2.863680000000000114e-01
-2.850880000000000081e-01
-2.877080000000000193e-01
-2.940380000000000216e-01
-3.039830000000000032e-01
-2.989330000000000043e-01
-2.902730000000000032e-01
-3.069330000000000114e-01
-2.966050000000000075e-01
-2.939709999999999823e-01
-3.085289999999999977e-01
-2.791730000000000045e-01
-3.019229999999999969e-01
-2.857970000000000232e-01
-2.849169999999999758e-01
-2.911369999999999791e-01
-3.037099999999999800e-01
-3.123299999999999965e-01
-2.835539999999999727e-01
-3.150080000000000102e-01
-2.857930000000000192e-01
-2.932179999999999787e-01
-2.957359999999999989e-01
-2.863240000000000229e-01
-2.986159999999999926e-01
-3.001599999999999824e-01
-2.828919999999999768e-01
-2.915429999999999966e-01
-2.887430000000000274e-01
-2.860500000000000265e-01
-3.126149999999999762e-01
-2.927620000000000222e-01
-2.885449999999999959e-01
-2.848939999999999806e-01
-2.838180000000000147e-01
-2.922259999999999858e-01
-2.986559999999999770e-01
-2.906880000000000019e-01
-2.893720000000000181e-01
-2.771120000000000250e-01
-3.126709999999999767e-01
-2.898819999999999730e-01
-2.855920000000000125e-01
-3.031940000000000190e-01
-2.902379999999999960e-01
-2.920449999999999990e-01
-2.911349999999999771e-01
-2.897170000000000023e-01
-2.810630000000000073e-01
-2.883220000000000227e-01
-2.886480000000000157e-01
-2.896520000000000206e-01
-2.823570000000000246e-01
-2.886199999999999877e-01
-3.029740000000000211e-01
-2.958120000000000194e-01
-2.988439999999999985e-01
-3.041880000000000139e-01
-2.967369999999999730e-01
-2.904660000000000020e-01
-2.925409999999999955e-01
-2.872270000000000101e-01
-2.910209999999999742e-01
-3.128449999999999842e-01
-3.017540000000000222e-01
-2.815449999999999897e-01
-2.910730000000000262e-01
-2.955260000000000109e-01
-2.859189999999999787e-01
-2.887379999999999947e-01
-2.847669999999999924e-01
-2.963589999999999836e-01
-3.083730000000000082e-01
-2.957219999999999849e-01
-2.870300000000000074e-01
-2.854349999999999943e-01
-2.807950000000000168e-01
-2.933600000000000096e-01
-2.787930000000000130e-01
-2.793999999999999817e-01
-2.841099999999999737e-01
-2.918709999999999916e-01
-2.920980000000000243e-01
-2.842669999999999919e-01
-2.856810000000000183e-01
-2.833399999999999808e-01
-2.937509999999999843e-01
-3.092679999999999874e-01
-2.930869999999999864e-01
-3.030280000000000196e-01
-3.086789999999999812e-01
-2.941429999999999878e-01
-3.013489999999999780e-01
-3.086760000000000059e-01
-2.891799999999999926e-01
-3.107219999999999982e-01
-2.849349999999999938e-01
-2.866580000000000239e-01
-2.948399999999999910e-01
-2.998009999999999842e-01
-2.843229999999999924e-01
-3.046690000000000231e-01
-2.894680000000000031e-01
-2.837299999999999822e-01
-2.979609999999999759e-01
-3.152610000000000134e-01
-2.890409999999999924e-01
-2.943339999999999845e-01
-2.950579999999999870e-01
-2.934990000000000099e-01
-2.900670000000000193e-01
-2.901469999999999883e-01
-2.887089999999999934e-01
-2.785980000000000123e-01
-2.870150000000000201e-01
-3.033640000000000225e-01
-2.873339999999999783e-01
-3.040999999999999814e-01
-3.137579999999999814e-01
-2.886130000000000084e-01
-2.934550000000000214e-01
-3.070550000000000224e-01
-2.834149999999999725e-01
-2.798189999999999844e-01
-2.869959999999999734e-01
-2.910920000000000174e-01
-2.866580000000000239e-01
-2.765830000000000233e-01
-2.879019999999999913e-01
-2.919459999999999833e-01
-2.917130000000000001e-01
-3.054479999999999973e-01
-2.783010000000000206e-01
-2.971039999999999792e-01
-2.918100000000000138e-01
-2.968729999999999980e-01
-3.022420000000000107e-01
-2.952600000000000224e-01
-2.869240000000000124e-01
-2.866650000000000031e-01
-3.140149999999999886e-01
-2.968379999999999908e-01
-2.814070000000000182e-01
-2.818849999999999967e-01
-2.877830000000000110e-01
-2.988899999999999890e-01
-2.823089999999999766e-01
-3.015200000000000102e-01
-2.927529999999999855e-01
-2.980960000000000276e-01
-2.862790000000000057e-01
-2.954840000000000244e-01
-2.938919999999999866e-01
-2.834539999999999837e-01
-2.926590000000000025e-01
-3.086260000000000114e-01
-2.845889999999999809e-01
-2.951650000000000107e-01
-2.811580000000000190e-01
-2.958140000000000214e-01
-3.000940000000000274e-01
-2.763399999999999745e-01
-2.936469999999999914e-01
-2.895269999999999788e-01
-2.860659999999999870e-01
-2.947629999999999972e-01
-2.814010000000000122e-01
-2.878899999999999793e-01
-2.859079999999999955e-01
-2.921019999999999728e-01
-2.915050000000000141e-01
-2.994550000000000267e-01
-3.030479999999999841e-01
-2.895969999999999933e-01
-2.948399999999999910e-01
-3.110729999999999884e-01
-2.957370000000000276e-01
-2.893700000000000161e-01
-2.852709999999999968e-01
-2.929689999999999794e-01
-2.954930000000000057e-01
-2.946829999999999727e-01
-2.864039999999999919e-01
-3.097799999999999998e-01
-2.843760000000000177e-01
-2.835750000000000215e-01
-2.767950000000000133e-01
-2.871170000000000111e-01
-2.932060000000000222e-01
-2.841239999999999877e-01
-2.821480000000000099e-01
-2.783640000000000003e-01
-2.964490000000000181e-01
-3.055100000000000038e-01
-2.852439999999999976e-01
-2.945320000000000160e-01
-2.802990000000000204e-01
-2.963509999999999756e-01
-2.826620000000000243e-01
-2.987440000000000095e-01
-2.874329999999999941e-01
-2.899160000000000070e-01
-2.893399999999999861e-01
-2.985840000000000161e-01
-3.080430000000000113e-01
-2.745909999999999740e-01
-3.100359999999999783e-01
-2.946909999999999807e-01
-2.954300000000000259e-01
-3.023100000000000231e-01
-2.784710000000000241e-01
-2.828209999999999891e-01
-2.954600000000000004e-01
-2.972190000000000110e-01
-2.957449999999999801e-01
-3.131220000000000114e-01
-2.990200000000000080e-01
-3.010280000000000178e-01
-2.947750000000000092e-01
-3.041840000000000099e-01
-3.138500000000000179e-01
-2.923089999999999855e-01
-2.858800000000000230e-01
-2.921009999999999995e-01
-2.892000000000000126e-01
-2.836750000000000105e-01
-2.981210000000000249e-01
-2.905789999999999762e-01
-2.917730000000000046e-01
-2.878919999999999813e-01
-2.948459999999999970e-01
-3.085169999999999857e-01
-2.889090000000000269e-01
-2.878220000000000223e-01
-2.850590000000000068e-01
-2.950519999999999810e-01
-3.001599999999999824e-01
-2.831910000000000260e-01
-2.876619999999999733e-01
-2.798419999999999797e-01
-3.034419999999999895e-01
-2.912370000000000236e-01
-3.022980000000000111e-01
-2.899180000000000090e-01
-2.859369999999999967e-01
-3.006940000000000168e-01
-2.881389999999999785e-01
-3.050749999999999851e-01
-3.040320000000000245e-01
-2.987179999999999835e-01
-2.869599999999999929e-01
-3.078859999999999930e-01
-3.051789999999999781e-01
-2.896690000000000098e-01
-2.977500000000000147e-01
-2.809010000000000118e-01
-3.142759999999999998e-01
-2.949129999999999807e-01
-2.862999999999999989e-01
-2.920449999999999990e-01
-2.869519999999999849e-01
-2.799090000000000189e-01
-2.932109999999999994e-01
-3.064649999999999874e-01
-2.901759999999999895e-01
-2.885909999999999864e-01
-2.930079999999999907e-01
-2.939430000000000098e-01
-2.952529999999999877e-01
-3.004089999999999816e-01
-2.873399999999999843e-01
-2.908600000000000074e-01
-2.880240000000000022e-01
-2.875770000000000270e-01
-2.993859999999999855e-01
-2.884979999999999767e-01
-2.838879999999999737e-01
-2.992159999999999820e-01
-2.824510000000000076e-01
-2.929030000000000244e-01
-3.063420000000000032e-01
-2.954720000000000124e-01
-2.880820000000000047e-01
-2.965280000000000138e-01
-2.848120000000000096e-01
-2.910249999999999782e-01
-3.057650000000000090e-01
-2.885030000000000094e-01
-2.827419999999999933e-01
-3.082289999999999752e-01
-3.084839999999999804e-01
-3.010909999999999975e-01
-3.123730000000000118e-01
-2.984069999999999778e-01
-3.003069999999999906e-01
-2.909680000000000044e-01
-2.907250000000000112e-01
-3.088139999999999774e-01
-2.936549999999999994e-01
-2.837919999999999887e-01
-2.897890000000000188e-01
-3.046780000000000044e-01
-3.045959999999999779e-01
-2.940909999999999913e-01
-2.929939999999999767e-01
-2.867580000000000129e-01
-3.033379999999999965e-01
-2.964559999999999973e-01
-2.852310000000000123e-01
-2.882339999999999902e-01
-2.977719999999999811e-01
-2.859749999999999792e-01
-3.006829999999999781e-01
-2.999350000000000072e-01
-2.874680000000000013e-01
-2.992980000000000085e-01
-2.911960000000000104e-01
-2.913359999999999839e-01
-3.074669999999999903e-01
-2.864639999999999964e-01
-3.081499999999999795e-01
-2.904579999999999940e-01
-2.844539999999999846e-01
-3.023700000000000276e-01
-2.990439999999999765e-01
-2.957000000000000184e-01
-2.817930000000000157e-01
-3.119299999999999851e-01
-2.972350000000000270e-01
-2.846389999999999754e-01
-3.099339999999999873e-01
-3.015010000000000190e-01
-3.010160000000000058e-01
-2.881560000000000232e-01
-2.881079999999999752e-01
-2.871879999999999988e-01
-2.891889999999999739e-01
-2.899610000000000243e-01
-3.034209999999999963e-01
-2.976530000000000009e-01
-2.905960000000000210e-01
-2.890630000000000144e-01
-3.007759999999999878e-01
-2.863020000000000009e-01
-2.852560000000000096e-01
-2.803180000000000116e-01
-2.963910000000000156e-01
-3.003919999999999924e-01
-3.005050000000000221e-01
-2.821500000000000119e-01
-3.180299999999999794e-01
-2.780239999999999934e-01
-2.897480000000000055e-01
-2.818240000000000189e-01
-3.086809999999999832e-01
-2.816899999999999959e-01
-2.825199999999999934e-01
-2.898569999999999758e-01
-2.846310000000000229e-01
-2.916569999999999996e-01
-2.864180000000000059e-01
-2.980090000000000239e-01
-2.876049999999999995e-01
-2.939749999999999863e-01
-2.824909999999999921e-01
-2.955180000000000029e-01
-2.833849999999999980e-01
-2.956070000000000086e-01
-3.050350000000000006e-01
-2.865260000000000029e-01
-2.804070000000000173e-01
-3.076920000000000210e-01
-2.875759999999999983e-01
-2.855619999999999825e-01
-2.807270000000000043e-01
-3.009410000000000140e-01
-3.050829999999999931e-01
-2.979189999999999894e-01
-2.928629999999999844e-01
-2.884229999999999849e-01
-3.031860000000000110e-01
-2.841759999999999842e-01
-2.853339999999999765e-01
-2.935050000000000159e-01
-2.931320000000000037e-01
-2.819039999999999879e-01
-2.958910000000000151e-01
-2.752560000000000007e-01
-2.864519999999999844e-01
-2.828419999999999823e-01
-2.798459999999999837e-01
-2.934590000000000254e-01
-2.823869999999999991e-01
-2.906110000000000082e-01
-2.921469999999999900e-01
-2.899499999999999855e-01
-2.864880000000000204e-01
-2.855130000000000168e-01
-2.876409999999999800e-01
-2.843140000000000112e-01
-3.097860000000000058e-01
-2.891099999999999781e-01
-3.016300000000000092e-01
-3.038420000000000010e-01
-2.887959999999999972e-01
-2.936639999999999806e-01
-3.034769999999999968e-01
-2.880030000000000090e-01
-2.939300000000000246e-01
-3.041249999999999787e-01
-3.073179999999999801e-01
-2.929399999999999782e-01
-2.869769999999999821e-01
-3.016849999999999810e-01
-2.927939999999999987e-01
-2.851469999999999838e-01
-2.956090000000000106e-01
-3.066470000000000029e-01
-2.877859999999999863e-01
-2.813169999999999837e-01
-2.869940000000000269e-01
-2.919809999999999905e-01
-2.855599999999999805e-01
-2.949709999999999832e-01
-2.766580000000000150e-01
-3.068400000000000016e-01
-2.980889999999999929e-01
-2.969910000000000050e-01
-2.992710000000000092e-01
-2.908870000000000067e-01
-2.862040000000000139e-01
-2.843760000000000177e-01
-2.969379999999999797e-01
-3.122079999999999855e-01
-2.924390000000000045e-01
-2.809969999999999968e-01
-3.008810000000000096e-01
-2.894950000000000023e-01
-2.861130000000000062e-01
-2.855889999999999818e-01
-3.090660000000000074e-01
-2.817760000000000264e-01
-2.938859999999999806e-01
-2.873390000000000111e-01
-3.125490000000000212e-01
-3.022090000000000054e-01
-2.929140000000000077e-01
-2.878990000000000160e-01
-3.084060000000000135e-01
-2.995189999999999797e-01
-3.113859999999999961e-01
-2.980499999999999816e-01
-3.013129999999999975e-01
-2.881610000000000005e-01
-2.948580000000000090e-01
-2.877770000000000050e-01
-2.892350000000000199e-01
-2.855349999999999833e-01
-2.918529999999999736e-01
-2.855980000000000185e-01
-2.802939999999999876e-01
-2.788680000000000048e-01
-2.841299999999999937e-01
-2.988939999999999930e-01
-3.130919999999999814e-01
-2.960139999999999993e-01
-2.917440000000000033e-01
-3.022589999999999999e-01
-3.041400000000000214e-01
-2.849409999999999998e-01
-2.979499999999999926e-01
-2.863609999999999767e-01
-2.937370000000000259e-01
-3.057630000000000070e-01
-2.941819999999999991e-01
-2.907810000000000117e-01
-2.935760000000000036e-01
-2.862810000000000077e-01
-3.182670000000000221e-01
-2.979269999999999974e-01
-2.912930000000000241e-01
-2.937560000000000171e-01
-2.920929999999999915e-01
-3.073389999999999733e-01
-3.022540000000000227e-01
-3.049439999999999928e-01
-2.857239999999999780e-01
-2.856090000000000018e-01
-2.901099999999999790e-01
-2.888270000000000004e-01
-2.973939999999999917e-01
-2.921529999999999960e-01
-3.015100000000000002e-01
-3.095539999999999958e-01
-3.015149999999999775e-01
-2.826819999999999888e-01
-3.022400000000000087e-01
-3.111450000000000049e-01
-3.126909999999999967e-01
-3.059040000000000092e-01
-2.831190000000000095e-01
-2.873240000000000238e-01
-2.851839999999999931e-01
-2.960450000000000026e-01
-3.002090000000000036e-01
-2.912089999999999956e-01
-2.830619999999999803e-01
-2.940189999999999748e-01
-2.818229999999999902e-01
-2.984379999999999811e-01
-2.933220000000000272e-01
-2.901110000000000078e-01
-3.044459999999999944e-01
-3.032000000000000250e-01
-2.912549999999999861e-01
-2.860210000000000252e-01
-2.872700000000000253e-01
-2.817299999999999804e-01
-2.860039999999999805e-01
-2.822279999999999789e-01
-3.143119999999999803e-01
-2.920240000000000058e-01
-3.147050000000000125e-01
-2.781120000000000259e-01
-2.840380000000000127e-01
-3.051989999999999981e-01
-3.098259999999999903e-01
-2.917669999999999986e-01
-2.899180000000000090e-01
-2.897569999999999868e-01
-3.019549999999999734e-01
-2.970030000000000170e-01
-2.948740000000000250e-01
-2.917959999999999998e-01
-3.082849999999999757e-01
-2.845579999999999776e-01
-2.866049999999999986e-01
-3.015780000000000127e-01
-2.952409999999999757e-01
-3.032670000000000088e-01
-2.975070000000000214e-01
-2.871480000000000143e-01
-2.949120000000000075e-01
-2.886029999999999984e-01
-2.820829999999999727e-01
-2.958439999999999959e-01
-2.922899999999999943e-01
-2.973870000000000124e-01
-3.080939999999999790e-01
-2.926949999999999830e-01
-2.923250000000000015e-01
-2.882870000000000155e-01
-2.994089999999999807e-01
-3.042179999999999884e-01
-2.989330000000000043e-01
-2.982679999999999776e-01
-2.934069999999999734e-01
-2.874900000000000233e-01
-2.874669999999999725e-01
-3.027409999999999823e-01
-3.095100000000000073e-01
-2.953419999999999934e-01
-3.042449999999999877e-01
-2.947859999999999925e-01
-3.052250000000000241e-01
-2.995820000000000149e-01
-2.877549999999999830e-01
-2.880989999999999940e-01
-2.918180000000000218e-01
-2.909309999999999952e-01
-2.900220000000000020e-01
-2.830699999999999883e-01
-2.929399999999999782e-01
-2.966770000000000240e-01
-2.970619999999999927e-01
-2.856299999999999950e-01
-2.993910000000000182e-01
-3.133730000000000127e-01
-2.918040000000000078e-01
-2.936900000000000066e-01
-3.094279999999999808e-01
-2.914499999999999869e-01
-2.877509999999999790e-01
-2.863280000000000269e-01
-3.010229999999999850e-01
-3.062110000000000110e-01
-2.960499999999999798e-01
-2.890490000000000004e-01
-3.029930000000000123e-01
-2.956130000000000146e-01
-2.905860000000000110e-01
-2.894959999999999756e-01
-2.982449999999999823e-01
-2.958069999999999866e-01
-3.095439999999999858e-01
-2.931969999999999854e-01
-2.940479999999999761e-01
-2.878649999999999820e-01
-2.868539999999999979e-01
-2.915130000000000221e-01
-3.126099999999999990e-01
-2.791710000000000025e-01
-2.853899999999999770e-01
-2.939129999999999798e-01
-2.978350000000000164e-01
-2.865409999999999902e-01
-2.942170000000000063e-01
-2.806029999999999913e-01
-2.831699999999999773e-01
-2.993000000000000105e-01
-3.045030000000000237e-01
-2.882759999999999767e-01
-3.004459999999999908e-01
-3.002580000000000249e-01
-3.045350000000000001e-01
-2.823260000000000214e-01
-2.840250000000000274e-01
-3.005269999999999886e-01
-2.827709999999999946e-01
-2.786480000000000068e-01
-2.872540000000000093e-01
-2.946650000000000102e-01
-2.877379999999999938e-01
-2.931239999999999957e-01
-3.115280000000000271e-01
-2.985740000000000061e-01
-3.072259999999999991e-01
-2.946119999999999850e-01
-2.844690000000000274e-01
-2.944680000000000075e-01
-2.982589999999999963e-01
-2.948029999999999817e-01
-2.852609999999999868e-01
-2.806939999999999991e-01
-2.826830000000000176e-01
-2.952099999999999724e-01
-2.938970000000000193e-01
-2.965889999999999915e-01
-2.950139999999999985e-01
-3.058620000000000227e-01
-2.905599999999999850e-01
-2.950829999999999842e-01
-3.026349999999999874e-01
-2.900360000000000160e-01
-2.827669999999999906e-01
-3.047860000000000014e-01
-2.938660000000000161e-01
-3.046900000000000164e-01
-2.885619999999999852e-01
-3.083049999999999957e-01
-2.798910000000000009e-01
-3.009970000000000145e-01
-3.111670000000000269e-01
-3.032119999999999815e-01
-3.057150000000000145e-01
-2.802450000000000219e-01
-3.106639999999999957e-01
-2.937910000000000244e-01
-2.889860000000000206e-01
-2.858390000000000097e-01
-2.808269999999999933e-01
-2.758760000000000101e-01
-2.915389999999999926e-01
-2.824420000000000264e-01
-2.963009999999999811e-01
-2.940969999999999973e-01
-2.839650000000000230e-01
-2.774539999999999784e-01
-2.924120000000000053e-01
-2.869369999999999976e-01
-3.017009999999999970e-01
-2.958749999999999991e-01
-2.813970000000000082e-01
-2.984310000000000018e-01
-2.969689999999999830e-01
-2.787450000000000205e-01
-2.837850000000000095e-01
-2.882750000000000035e-01
-3.070289999999999964e-01
-3.032960000000000100e-01
-2.887319999999999887e-01
-2.882520000000000082e-01
-2.846620000000000261e-01
-2.922540000000000138e-01
-2.904979999999999785e-01
-3.063779999999999837e-01
-3.079790000000000028e-01
-2.880880000000000107e-01
-2.876070000000000015e-01
-2.911329999999999751e-01
-2.995780000000000109e-01
-2.960110000000000241e-01
-2.874999999999999778e-01
-2.914689999999999781e-01
-2.870360000000000134e-01
-3.022810000000000219e-01
-2.899979999999999780e-01
-2.835170000000000190e-01
-3.033609999999999918e-01
-2.822270000000000056e-01
-2.795900000000000052e-01
-2.829130000000000256e-01
-2.885499999999999732e-01
-2.935409999999999964e-01
-2.952600000000000224e-01
-2.854389999999999983e-01
-3.072849999999999748e-01
-3.036650000000000182e-01
-2.824130000000000251e-01
-2.887069999999999914e-01
-2.978750000000000009e-01
-2.951630000000000087e-01
-2.828829999999999956e-01
-2.926380000000000092e-01
-2.902870000000000172e-01
-2.871750000000000136e-01
-2.893999999999999906e-01
-2.951190000000000202e-01
-3.050720000000000098e-01
-3.062630000000000075e-01
-3.044780000000000264e-01
-2.976829999999999754e-01
-2.878339999999999788e-01
-2.841020000000000212e-01
-2.903729999999999922e-01
-2.904240000000000155e-01
-2.817769999999999997e-01
-2.997589999999999977e-01
-2.902129999999999987e-01
-2.918000000000000038e-01
-2.893709999999999893e-01
-2.937350000000000239e-01
-2.876170000000000115e-01
-2.998669999999999947e-01
-2.914229999999999876e-01
-2.857160000000000255e-01
-2.788860000000000228e-01
-3.005979999999999763e-01
-3.071590000000000154e-01
-2.961920000000000108e-01
-2.893879999999999786e-01
-2.814570000000000127e-01
-2.820969999999999867e-01
-2.879450000000000065e-01
-2.885130000000000194e-01
-3.050289999999999946e-01
-2.947319999999999940e-01
-2.928149999999999920e-01
-2.935459999999999736e-01
-2.879820000000000157e-01
-3.151729999999999809e-01
-2.945300000000000140e-01
-3.022270000000000234e-01
-2.893189999999999928e-01
-2.922980000000000023e-01
-2.847390000000000199e-01
-3.015100000000000002e-01
-3.127909999999999857e-01
-2.874030000000000196e-01
-3.052810000000000246e-01
-2.948760000000000270e-01
-2.979289999999999994e-01
-2.955289999999999861e-01
-3.002449999999999841e-01
-3.025880000000000236e-01
-2.958549999999999791e-01
-2.983190000000000008e-01
-2.949010000000000242e-01
-2.887480000000000047e-01
-3.031170000000000253e-01
-2.904900000000000260e-01
-2.924030000000000240e-01
-3.005849999999999911e-01
-2.897410000000000263e-01
-3.047650000000000081e-01
-3.019769999999999954e-01
-2.935249999999999804e-01
-2.919479999999999853e-01
-2.910769999999999746e-01
-2.832740000000000258e-01
-3.065579999999999972e-01
-2.895340000000000136e-01
-2.863899999999999779e-01
-3.093699999999999783e-01
-2.910349999999999882e-01
-3.042019999999999724e-01
-2.901230000000000198e-01
-2.801620000000000221e-01
-3.010809999999999875e-01
-2.856060000000000265e-01
-3.035050000000000248e-01
-2.968669999999999920e-01
-2.862990000000000257e-01
-2.975940000000000252e-01
-3.071110000000000229e-01
-2.959919999999999773e-01
-2.862999999999999989e-01
-2.891449999999999854e-01
-3.174230000000000107e-01
-2.846440000000000081e-01
-2.944350000000000023e-01
-3.066530000000000089e-01
-2.963629999999999876e-01
-3.043649999999999967e-01
-2.923649999999999860e-01
-2.862000000000000099e-01
-3.061630000000000185e-01
-2.840710000000000179e-01
-2.948490000000000277e-01
-2.904669999999999752e-01
-2.838319999999999732e-01
-3.100109999999999810e-01
-3.076139999999999985e-01
-2.900909999999999878e-01
-2.848800000000000221e-01
-2.947370000000000267e-01
-3.009160000000000168e-01
-2.817769999999999997e-01
-2.881210000000000160e-01
-2.852609999999999868e-01
-2.825759999999999939e-01
-2.918870000000000076e-01
-3.119319999999999871e-01
-3.044140000000000179e-01
-3.091849999999999876e-01
-2.807189999999999963e-01
-2.920099999999999918e-01
-2.921529999999999960e-01
-2.945099999999999940e-01
-2.898580000000000045e-01
-2.842910000000000159e-01
-2.905929999999999902e-01
-3.063020000000000187e-01
-2.874530000000000141e-01
-2.827149999999999941e-01
-2.899680000000000035e-01
-2.904470000000000107e-01
-3.002139999999999809e-01
-3.036659999999999915e-01
-2.944680000000000075e-01
-2.937009999999999899e-01
-3.006159999999999943e-01
-2.892279999999999851e-01
-3.008629999999999916e-01
-2.892879999999999896e-01
-2.895449999999999968e-01
-3.059919999999999862e-01
-2.928160000000000207e-01
-2.941329999999999778e-01
-2.964910000000000045e-01
-2.904470000000000107e-01
-2.830340000000000078e-01
-2.785340000000000038e-01
-2.886529999999999929e-01
-3.077659999999999840e-01
-3.081860000000000155e-01
-2.922759999999999803e-01
-2.832839999999999803e-01
-2.934530000000000194e-01
-2.835030000000000050e-01
-3.046820000000000084e-01
-2.855099999999999860e-01
-2.898259999999999725e-01
-2.975820000000000132e-01
-2.916360000000000063e-01
-2.978250000000000064e-01
-2.797370000000000134e-01
-2.783070000000000266e-01
-2.871719999999999828e-01
-2.916860000000000008e-01
-2.875119999999999898e-01
-3.128980000000000095e-01
-2.861210000000000142e-01
-2.805739999999999901e-01
-3.031039999999999845e-01
-3.048330000000000206e-01
-2.873890000000000056e-01
-3.145200000000000218e-01
-2.904129999999999767e-01
-2.847129999999999939e-01
-2.847180000000000266e-01
-2.858550000000000257e-01
-3.043299999999999894e-01
-2.826859999999999928e-01
-2.904010000000000202e-01
-2.819079999999999919e-01
-2.934629999999999739e-01
-2.970829999999999860e-01
-2.824160000000000004e-01
-3.119259999999999811e-01
-2.957730000000000081e-01
-2.939579999999999971e-01
-2.829139999999999988e-01
-2.999820000000000264e-01
-2.942270000000000163e-01
-2.958180000000000254e-01
-3.020050000000000234e-01
-2.957529999999999881e-01
-2.951579999999999759e-01
-2.865960000000000174e-01
-2.937930000000000264e-01
-2.937980000000000036e-01
-3.066400000000000237e-01
-3.153409999999999824e-01
-2.917390000000000261e-01
-3.051690000000000236e-01
-3.087759999999999949e-01
-3.060329999999999995e-01
-2.991639999999999855e-01
-3.084470000000000267e-01
-2.863280000000000269e-01
-3.036289999999999822e-01
-2.895440000000000236e-01
-3.006499999999999728e-01
-3.024410000000000154e-01
-2.990389999999999993e-01
-2.898800000000000265e-01
-2.904900000000000260e-01
-3.016619999999999857e-01
-2.889700000000000046e-01
-3.044890000000000096e-01
-2.897529999999999828e-01
-2.929519999999999902e-01
-3.046499999999999764e-01
-2.868439999999999879e-01
-2.947009999999999907e-01
-2.983259999999999801e-01
-2.899709999999999788e-01
-2.849499999999999811e-01
-2.908870000000000067e-01
-2.931320000000000037e-01
-2.797479999999999967e-01
-3.052619999999999778e-01
-2.935450000000000004e-01
-2.955860000000000154e-01
-2.991820000000000035e-01
-2.966019999999999768e-01
-2.755610000000000004e-01
-2.928660000000000152e-01
-3.009240000000000248e-01
-3.011949999999999905e-01
-2.957370000000000276e-01
-2.963219999999999743e-01
-2.940030000000000143e-01
-3.042309999999999737e-01
-3.124379999999999935e-01
-2.965630000000000210e-01
-2.894760000000000111e-01
-2.834030000000000160e-01
-2.980369999999999964e-01
-2.959149999999999836e-01
-2.893800000000000261e-01
-2.963529999999999776e-01
-2.995249999999999857e-01
-2.815369999999999817e-01
-2.932219999999999827e-01
-2.931349999999999789e-01
-3.023199999999999776e-01
-2.850619999999999821e-01
-2.851159999999999806e-01
-3.074029999999999818e-01
-2.837950000000000195e-01
-2.825540000000000274e-01
-2.862580000000000124e-01
-2.958109999999999906e-01
-2.827270000000000061e-01
-2.894329999999999958e-01
-2.857950000000000212e-01
-2.874940000000000273e-01
-2.987929999999999753e-01
-2.972009999999999930e-01
-2.961619999999999808e-01
-2.945030000000000148e-01
-2.899619999999999975e-01
-2.853180000000000160e-01
-2.954890000000000017e-01
-2.908140000000000169e-01
-2.874499999999999833e-01
-2.817970000000000197e-01
-2.859829999999999872e-01
-2.867149999999999976e-01
-2.870630000000000126e-01
-3.006210000000000271e-01
-3.016710000000000225e-01
-3.106880000000000197e-01
-2.915179999999999993e-01
-3.000579999999999914e-01
-2.919169999999999821e-01
-2.922440000000000038e-01
-2.843370000000000064e-01
-2.973569999999999824e-01
-2.950619999999999910e-01
-3.089569999999999816e-01
-2.883600000000000052e-01
-2.876610000000000000e-01
-2.886560000000000237e-01
-2.859510000000000107e-01
-2.939499999999999891e-01
-2.927100000000000257e-01
-3.048799999999999844e-01
-3.000019999999999909e-01
-2.825050000000000061e-01
-2.845949999999999869e-01
-3.153929999999999789e-01
-2.973959999999999937e-01
-2.980740000000000056e-01
-3.052860000000000018e-01
-3.149040000000000172e-01
-2.827640000000000153e-01
-2.863620000000000054e-01
-2.940369999999999928e-01
-2.833700000000000108e-01
-2.872199999999999753e-01
-2.966110000000000135e-01
-3.055200000000000138e-01
-2.859570000000000167e-01
-3.149609999999999910e-01
-3.013890000000000180e-01
-3.082170000000000187e-01
-2.898879999999999790e-01
-2.865230000000000277e-01
-2.885309999999999819e-01
-2.951280000000000014e-01
-2.836119999999999752e-01
-2.882430000000000270e-01
-3.124979999999999980e-01
-2.806660000000000266e-01
-3.040010000000000212e-01
-2.828849999999999976e-01
-2.993720000000000270e-01
-2.856710000000000083e-01
-2.904599999999999960e-01
-3.096300000000000163e-01
-2.976710000000000189e-01
-3.103540000000000187e-01
-2.826210000000000111e-01
-3.048810000000000131e-01
-3.031039999999999845e-01
-3.095430000000000126e-01
-2.905880000000000130e-01
-2.850940000000000141e-01
-2.955960000000000254e-01
-2.846560000000000201e-01
-2.843760000000000177e-01
-2.894950000000000023e-01
-2.882020000000000137e-01
-2.888950000000000129e-01
-2.976619999999999822e-01
-2.956349999999999811e-01
-2.929249999999999909e-01
-2.918060000000000098e-01
-2.925159999999999982e-01
-3.068100000000000271e-01
-2.904450000000000087e-01
-2.942139999999999755e-01
-3.044780000000000264e-01
-2.883899999999999797e-01
-2.787109999999999865e-01
-3.054410000000000180e-01
-2.953700000000000214e-01
-2.903540000000000010e-01
-2.972509999999999875e-01
-2.837979999999999947e-01
-2.872870000000000146e-01
-2.951119999999999854e-01
-3.106280000000000152e-01
-3.123739999999999850e-01
-2.779260000000000064e-01
-2.861420000000000075e-01
-2.934979999999999811e-01
-2.950670000000000237e-01
-2.950990000000000002e-01
-2.935300000000000131e-01
-2.892799999999999816e-01
-3.113090000000000024e-01
-2.848609999999999753e-01
-2.890409999999999924e-01
-2.969510000000000205e-01
-3.007179999999999853e-01
-3.128650000000000042e-01
-2.891949999999999799e-01
-2.949700000000000100e-01
-2.848700000000000121e-01
-2.903510000000000257e-01
-3.051229999999999776e-01
-2.969700000000000117e-01
-2.797740000000000227e-01
-2.817779999999999729e-01
-2.863789999999999947e-01
-3.031730000000000258e-01
-2.830889999999999795e-01
-2.896110000000000073e-01
-2.821400000000000019e-01
-2.868829999999999991e-01
-2.872739999999999738e-01
-2.941139999999999866e-01
-2.839670000000000250e-01
-2.846040000000000236e-01
-2.957699999999999774e-01
-2.967009999999999925e-01
-2.952819999999999889e-01
-2.917270000000000141e-01
-3.150109999999999855e-01
-3.046360000000000179e-01
-3.048660000000000259e-01
-2.932500000000000107e-01
-2.861520000000000175e-01
-3.073069999999999968e-01
-2.993850000000000122e-01
-2.967690000000000050e-01
-2.993540000000000090e-01
-3.098489999999999855e-01
-2.887770000000000059e-01
-2.838990000000000125e-01
-2.829110000000000236e-01
-2.809440000000000270e-01
-2.838200000000000167e-01
-2.934209999999999874e-01
-2.799519999999999786e-01
-2.930010000000000114e-01
-2.967409999999999770e-01
-2.939060000000000006e-01
-2.940349999999999908e-01
-2.914470000000000116e-01
-3.099950000000000205e-01
-3.129390000000000227e-01
-2.937710000000000043e-01
-2.853580000000000005e-01
-2.891520000000000201e-01
-3.027440000000000131e-01
-3.032090000000000063e-01
-2.890360000000000151e-01
-2.930820000000000092e-01
-2.895240000000000036e-01
-2.897109999999999963e-01
-2.839289999999999869e-01
-2.955699999999999994e-01
-2.832959999999999923e-01
-2.782600000000000073e-01
-2.888339999999999796e-01
-2.891940000000000066e-01
-2.779170000000000251e-01
-2.997960000000000069e-01
-2.915470000000000006e-01
-2.781819999999999848e-01
-2.944089999999999763e-01
-2.909689999999999777e-01
-2.919249999999999901e-01
-3.024459999999999926e-01
-2.839479999999999782e-01
-2.832870000000000110e-01
-3.039620000000000100e-01
-2.931039999999999757e-01
-2.888760000000000217e-01
-3.120189999999999908e-01
-3.103259999999999907e-01
-2.744480000000000253e-01
-2.863419999999999854e-01
-3.088659999999999739e-01
-2.987480000000000135e-01
-3.048529999999999851e-01
-3.078060000000000240e-01
-2.915050000000000141e-01
-2.912879999999999914e-01
-2.862660000000000204e-01
-2.913089999999999846e-01
-2.945729999999999738e-01
-2.843789999999999929e-01
-2.808169999999999833e-01
-2.765340000000000020e-01
-2.930170000000000274e-01
-3.040749999999999842e-01
-2.873979999999999868e-01
-2.902640000000000220e-01
-2.882350000000000190e-01
-2.780679999999999819e-01
-2.872449999999999726e-01
-2.888450000000000184e-01
-3.111189999999999789e-01
-2.792200000000000237e-01
-2.920679999999999943e-01
-2.824119999999999964e-01
-2.799380000000000202e-01
-2.960229999999999806e-01
-2.847379999999999911e-01
-2.987500000000000155e-01
-2.937179999999999791e-01
-3.148150000000000115e-01
-3.061590000000000145e-01
-2.897569999999999868e-01
-3.037500000000000200e-01
-2.794019999999999837e-01
-2.911810000000000231e-01
-2.966699999999999893e-01
-2.941360000000000086e-01
-2.821969999999999756e-01
-2.786910000000000220e-01
-2.864990000000000037e-01
-2.883100000000000107e-01
-2.872970000000000246e-01
-2.848680000000000101e-01
-2.836899999999999977e-01
-3.037569999999999992e-01
-2.864519999999999844e-01
-2.816339999999999955e-01
-2.910749999999999726e-01
-2.918740000000000223e-01
-2.887359999999999927e-01
-2.812720000000000220e-01
-3.014430000000000165e-01
-3.062929999999999819e-01
-2.890130000000000199e-01
-2.928379999999999872e-01
-2.973259999999999792e-01
-2.970490000000000075e-01
-2.837899999999999867e-01
-3.042549999999999977e-01
-2.901059999999999750e-01
-2.930579999999999852e-01
-2.867129999999999956e-01
-3.116349999999999953e-01
-2.835670000000000135e-01
-2.992070000000000007e-01
-2.950579999999999870e-01
-3.024939999999999851e-01
-2.962400000000000033e-01
-2.964220000000000188e-01
-3.043810000000000127e-01
-2.910340000000000149e-01
-2.912790000000000101e-01
-2.964620000000000033e-01
-2.924229999999999885e-01
-2.931920000000000082e-01
-2.848459999999999881e-01
-3.024930000000000119e-01
-3.069620000000000126e-01
-2.963649999999999896e-01
-2.895699999999999941e-01
-2.966019999999999768e-01
-2.806029999999999913e-01
-2.851279999999999926e-01
-3.009479999999999933e-01
-3.012770000000000170e-01
-2.906650000000000067e-01
-2.871159999999999823e-01
-2.892029999999999879e-01
-2.881179999999999852e-01
-2.925229999999999775e-01
-2.899700000000000055e-01
-2.947879999999999945e-01
-2.863979999999999859e-01
-2.913069999999999826e-01
-2.825759999999999939e-01
-2.928310000000000080e-01
-2.853450000000000153e-01
-2.880139999999999922e-01
-2.888519999999999976e-01
-3.114529999999999799e-01
-3.016510000000000025e-01
-2.932810000000000139e-01
-2.874760000000000093e-01
-2.995149999999999757e-01
-2.860809999999999742e-01
-2.857040000000000135e-01
-2.891949999999999799e-01
-2.917040000000000188e-01
-2.977330000000000254e-01
-2.922520000000000118e-01
-2.869979999999999754e-01
-2.971489999999999965e-01
-2.895229999999999748e-01
-2.995090000000000252e-01
-3.042170000000000152e-01
-2.857750000000000012e-01
-3.010059999999999958e-01
-3.003549999999999831e-01
-3.134680000000000244e-01
-3.130930000000000102e-01
-3.009689999999999865e-01
-2.995459999999999789e-01
-2.823339999999999739e-01
-2.809130000000000238e-01
-2.969220000000000192e-01
-2.871960000000000068e-01
-2.899539999999999895e-01
-3.037679999999999825e-01
-2.843109999999999804e-01
-3.122130000000000183e-01
-2.954399999999999804e-01
-2.955709999999999726e-01
-2.878129999999999855e-01
-2.801569999999999894e-01
-2.950269999999999837e-01
-3.096840000000000148e-01
-2.962409999999999766e-01
-2.890110000000000179e-01
-3.061780000000000057e-01
-3.065789999999999904e-01
-2.913160000000000194e-01
-2.896369999999999778e-01
-3.101019999999999888e-01
-3.038480000000000070e-01
-2.825320000000000054e-01
-2.941239999999999966e-01
-2.849269999999999858e-01
-3.070970000000000089e-01
-3.061070000000000180e-01
-2.940490000000000048e-01
-2.806850000000000178e-01
-2.775429999999999842e-01
-3.063719999999999777e-01
-2.946460000000000190e-01
-2.939309999999999978e-01
-2.889559999999999906e-01
-2.813660000000000050e-01
-2.905940000000000190e-01
-2.982420000000000071e-01
-2.816020000000000190e-01
-2.828330000000000011e-01
-2.833519999999999928e-01
-2.917250000000000121e-01
-2.866380000000000039e-01
-2.883959999999999857e-01
-2.891670000000000074e-01
-2.885559999999999792e-01
-2.916480000000000183e-01
-2.930360000000000187e-01
-2.992670000000000052e-01
-2.961429999999999896e-01
-2.759820000000000051e-01
-2.962259999999999893e-01
-2.940929999999999933e-01
-2.855329999999999813e-01
-3.144239999999999813e-01
-2.927279999999999882e-01
-2.773539999999999894e-01
-3.077590000000000048e-01
-2.826089999999999991e-01
-2.944720000000000115e-01
-2.878299999999999748e-01
-2.823609999999999731e-01
-2.940090000000000203e-01
-3.066200000000000037e-01
-3.105200000000000182e-01
-2.811250000000000138e-01
-2.963029999999999831e-01
-2.846460000000000101e-01
-3.034029999999999783e-01
-2.960619999999999918e-01
-2.926520000000000232e-01
-2.910449999999999982e-01
-3.105339999999999767e-01
-2.865019999999999789e-01
-2.957389999999999741e-01
-3.043199999999999794e-01
-2.837770000000000015e-01
-2.922609999999999930e-01
-2.892060000000000186e-01
-2.962119999999999753e-01
-3.093150000000000066e-01
-3.055760000000000143e-01
-2.914320000000000244e-01
-2.902339999999999920e-01
-2.870980000000000198e-01
-2.866099999999999759e-01
-2.862279999999999824e-01
-2.981360000000000121e-01
-2.785969999999999835e-01
-2.882680000000000242e-01
-2.821569999999999911e-01
-2.916320000000000023e-01
-2.926360000000000072e-01
-2.857230000000000047e-01
-2.958040000000000114e-01
-2.963799999999999768e-01
-2.987400000000000055e-01
-3.005120000000000013e-01
-2.881690000000000085e-01
-2.992239999999999900e-01
-2.998489999999999767e-01
-3.068609999999999949e-01
-3.040359999999999729e-01
-2.854880000000000195e-01
-2.959669999999999801e-01
-2.839329999999999909e-01
-2.885829999999999784e-01
-2.925429999999999975e-01
-2.845809999999999729e-01
-2.965360000000000218e-01
-2.940579999999999861e-01
-2.848109999999999808e-01
-2.959280000000000244e-01
-3.090979999999999839e-01
-2.967259999999999898e-01
-2.847310000000000119e-01
-2.887379999999999947e-01
-3.109109999999999929e-01
-2.823689999999999811e-01
-3.096800000000000108e-01
-2.954149999999999832e-01
-2.891480000000000161e-01
-2.957710000000000061e-01
-2.820230000000000237e-01
-2.841549999999999909e-01
-2.778430000000000066e-01
-2.924419999999999797e-01
-2.901150000000000118e-01
-2.911900000000000044e-01
-3.054780000000000273e-01
-3.091999999999999749e-01
-2.954049999999999732e-01
-2.897069999999999923e-01
-2.879570000000000185e-01
-2.835900000000000087e-01
-2.868780000000000219e-01
-2.964189999999999880e-01
-2.889169999999999794e-01
-3.038899999999999935e-01
-2.783260000000000178e-01
-2.855770000000000253e-01
-2.979829999999999979e-01
-2.841210000000000124e-01
-2.992170000000000107e-01
-2.996309999999999807e-01
-3.052010000000000001e-01
-3.122719999999999940e-01
-2.950260000000000105e-01
-2.875519999999999743e-01
-2.909180000000000099e-01
-2.861159999999999815e-01
-2.854940000000000255e-01
-2.936679999999999846e-01
-2.867089999999999916e-01
-2.731390000000000207e-01
-3.004089999999999816e-01
-2.838609999999999745e-01
-2.870059999999999834e-01
-2.994100000000000095e-01
-2.943479999999999985e-01
-3.045249999999999901e-01
-2.874959999999999738e-01
-2.993759999999999755e-01
-2.921790000000000220e-01
-2.920740000000000003e-01
-2.895070000000000143e-01
-2.982650000000000023e-01
-3.017790000000000195e-01
-2.848280000000000256e-01
-2.909700000000000064e-01
-2.954979999999999829e-01
-2.847879999999999856e-01
-2.825790000000000246e-01
-3.045419999999999794e-01
-2.792640000000000122e-01
-2.840989999999999904e-01
-2.794070000000000165e-01
-3.117710000000000203e-01
-2.959620000000000029e-01
-2.856400000000000050e-01
-2.954049999999999732e-01
-2.963749999999999996e-01
-2.818240000000000189e-01
-2.958330000000000126e-01
-3.151180000000000092e-01
-2.849160000000000026e-01
-3.080499999999999905e-01
-2.916389999999999816e-01
-3.035789999999999877e-01
-2.884090000000000265e-01
-2.982989999999999808e-01
-2.840139999999999887e-01
-2.795610000000000039e-01
-2.916380000000000083e-01
-2.867770000000000041e-01
-3.006699999999999928e-01
-2.928089999999999860e-01
-2.882170000000000010e-01
-2.888399999999999856e-01
-2.968930000000000180e-01
-3.033919999999999950e-01
-3.002770000000000161e-01
-2.843930000000000069e-01
-2.864099999999999979e-01
-3.116399999999999726e-01
-2.920949999999999935e-01
-2.865699999999999914e-01
-3.029149999999999898e-01
-2.882460000000000022e-01
-2.827459999999999973e-01
-2.852100000000000191e-01
-2.867140000000000244e-01
-3.041449999999999987e-01
-2.825300000000000034e-01
-2.914669999999999761e-01
-2.877250000000000085e-01
-2.848649999999999793e-01
-2.822180000000000244e-01
-2.967890000000000250e-01
-2.990889999999999938e-01
-3.085860000000000269e-01
-3.070939999999999781e-01
-2.986679999999999890e-01
-2.901779999999999915e-01
-2.904990000000000072e-01
-2.871340000000000003e-01
-2.843939999999999801e-01
-2.952060000000000239e-01
-3.069379999999999886e-01
-3.027000000000000246e-01
-2.904089999999999727e-01
-3.046650000000000191e-01
-2.865469999999999962e-01
-2.905829999999999802e-01
-2.919869999999999965e-01
-2.862160000000000259e-01
-2.821339999999999959e-01
-2.983790000000000053e-01
-2.821429999999999771e-01
-2.899490000000000123e-01
-2.916819999999999968e-01
-2.879229999999999845e-01
-2.861960000000000059e-01
-3.040089999999999737e-01
-2.849519999999999831e-01
-2.815630000000000077e-01
-3.049370000000000136e-01
-2.815019999999999745e-01
-2.868439999999999879e-01
-2.859410000000000007e-01
-2.836779999999999857e-01
-2.950769999999999782e-01
-2.843530000000000224e-01
-3.040930000000000022e-01
-3.095379999999999798e-01
-3.065970000000000084e-01
-2.994970000000000132e-01
-3.011329999999999840e-01
-2.944760000000000155e-01
-2.955499999999999794e-01
-2.937080000000000246e-01
-2.846799999999999886e-01
-3.022949999999999804e-01
-3.006510000000000016e-01
-2.881549999999999945e-01
-2.920550000000000090e-01
-3.040129999999999777e-01
-3.080609999999999737e-01
-2.920780000000000043e-01
-2.913879999999999804e-01
-3.067110000000000114e-01
-2.798030000000000239e-01
-2.848919999999999786e-01
-3.016519999999999757e-01
-2.881909999999999750e-01
-3.032889999999999753e-01
-3.064999999999999947e-01
-3.022329999999999739e-01
-2.963350000000000151e-01
-2.935400000000000231e-01
-3.112389999999999879e-01
-3.163460000000000161e-01
-2.907609999999999917e-01
-2.814499999999999780e-01
-3.132050000000000112e-01
-2.997699999999999809e-01
-3.021369999999999889e-01
-2.883330000000000060e-01
-2.950670000000000237e-01
-2.834880000000000178e-01
-2.978509999999999769e-01
-2.864129999999999732e-01
-2.957259999999999889e-01
-2.900599999999999845e-01
-3.014959999999999862e-01
-2.916949999999999821e-01
-2.975769999999999804e-01
-2.965360000000000218e-01
-2.862600000000000144e-01
-2.831270000000000175e-01
-2.870690000000000186e-01
-2.853519999999999945e-01
-2.932159999999999767e-01
-3.021380000000000177e-01
-3.014189999999999925e-01
-2.890099999999999891e-01
-2.882839999999999847e-01
-2.864760000000000084e-01
-3.079649999999999888e-01
-2.924619999999999997e-01
-2.810929999999999818e-01
-2.872170000000000001e-01
-2.885900000000000132e-01
-2.945459999999999745e-01
-2.913890000000000091e-01
-2.845190000000000219e-01
-3.008790000000000076e-01
-3.076490000000000058e-01
-3.135439999999999894e-01
-3.000099999999999989e-01
-2.831190000000000095e-01
-3.054970000000000185e-01
-3.014430000000000165e-01
-3.129640000000000200e-01
-2.891830000000000234e-01
-2.965499999999999803e-01
-3.027070000000000038e-01
-3.081650000000000222e-01
-3.089319999999999844e-01
-2.850219999999999976e-01
-3.102730000000000210e-01
-2.873919999999999808e-01
-2.940320000000000156e-01
-3.012059999999999738e-01
-2.826199999999999823e-01
-3.146579999999999933e-01
-2.828060000000000018e-01
-2.965829999999999855e-01
-2.966750000000000220e-01
-2.971159999999999912e-01
-2.847210000000000019e-01
-2.916429999999999856e-01
-2.851940000000000031e-01
-2.896630000000000038e-01
-3.040459999999999829e-01
-2.824349999999999916e-01
-2.934919999999999751e-01
-2.915139999999999953e-01
-2.929649999999999754e-01
-2.925740000000000007e-01
-2.871389999999999776e-01
-3.032119999999999815e-01
-2.794510000000000050e-01
-2.799479999999999746e-01
-2.875179999999999958e-01
-2.981179999999999941e-01
-2.824559999999999849e-01
-2.850719999999999921e-01
-2.876619999999999733e-01
-2.939539999999999931e-01
-2.785079999999999778e-01
-2.977170000000000094e-01
-2.888769999999999949e-01
-2.787209999999999965e-01
-3.109299999999999842e-01
-2.753079999999999972e-01
-2.918149999999999911e-01
-2.877230000000000065e-01
-2.933169999999999944e-01
-3.030970000000000053e-01
-2.964060000000000028e-01
-2.942649999999999988e-01
-3.061840000000000117e-01
-2.903569999999999762e-01
-2.959829999999999961e-01
-2.902799999999999825e-01
-3.162360000000000171e-01
-2.866989999999999816e-01
-2.847999999999999976e-01
-3.125990000000000157e-01
-2.864490000000000092e-01
-2.948520000000000030e-01
-2.910630000000000162e-01
-2.957750000000000101e-01
-2.843499999999999917e-01
-2.974490000000000189e-01
-2.922089999999999965e-01
-2.891139999999999821e-01
-2.979780000000000206e-01
-3.030599999999999961e-01
-2.912060000000000204e-01
-3.031280000000000086e-01
-2.830869999999999775e-01
-2.810050000000000048e-01
-2.894570000000000198e-01
-2.967830000000000190e-01
-2.923439999999999928e-01
-2.867190000000000016e-01
-2.991489999999999982e-01
-2.926650000000000085e-01
-2.870929999999999871e-01
-2.808669999999999778e-01
-2.826029999999999931e-01
-2.843609999999999749e-01
-3.017889999999999739e-01
-3.072869999999999768e-01
-2.810529999999999973e-01
-2.981469999999999954e-01
-2.803760000000000141e-01
-2.978720000000000256e-01
-3.126590000000000202e-01
-2.936139999999999861e-01
-2.954339999999999744e-01
-2.914419999999999789e-01
-2.982139999999999791e-01
-2.899039999999999950e-01
-2.960079999999999933e-01
-3.054230000000000000e-01
-2.917589999999999906e-01
-3.035869999999999957e-01
-2.997750000000000137e-01
-2.823640000000000039e-01
-2.868310000000000026e-01
-2.956699999999999884e-01
-2.932629999999999959e-01
-2.862750000000000017e-01
-2.968399999999999928e-01
-2.957219999999999849e-01
-3.026699999999999946e-01
-2.922000000000000153e-01
-2.913040000000000074e-01
-3.087869999999999782e-01
-2.842930000000000179e-01
-2.992710000000000092e-01
-2.793939999999999757e-01
-2.927609999999999935e-01
-2.839050000000000185e-01
-2.945840000000000125e-01
-3.077130000000000143e-01
-2.907810000000000117e-01
-3.077190000000000203e-01
-2.865630000000000122e-01
-2.908259999999999734e-01
-2.958399999999999919e-01
-2.950610000000000177e-01
-2.939479999999999871e-01
-3.033109999999999973e-01
-2.846330000000000249e-01
-2.997509999999999897e-01
-2.883569999999999744e-01
-2.987870000000000248e-01
-2.906569999999999987e-01
-2.867549999999999821e-01
-2.839499999999999802e-01
-2.841380000000000017e-01
-3.073679999999999746e-01
-3.123389999999999778e-01
-2.944680000000000075e-01
-2.949229999999999907e-01
-3.045120000000000049e-01
-2.748619999999999952e-01
-2.864289999999999892e-01
-3.011159999999999948e-01
-2.975479999999999792e-01
-3.015979999999999772e-01
-2.888330000000000064e-01
-2.894959999999999756e-01
-2.974359999999999782e-01
-2.848829999999999973e-01
-2.918850000000000056e-01
-2.894340000000000246e-01
-3.154140000000000277e-01
-3.015689999999999760e-01
-2.912449999999999761e-01
-2.853049999999999753e-01
-2.896699999999999831e-01
-2.870240000000000014e-01
-2.808559999999999945e-01
-2.880369999999999875e-01
-2.828089999999999771e-01
-3.057119999999999838e-01
-2.999970000000000137e-01
-3.068389999999999729e-01
-2.809760000000000035e-01
-2.776870000000000172e-01
-3.134939999999999949e-01
-2.905940000000000190e-01
-2.771000000000000130e-01
-3.093350000000000266e-01
-2.980410000000000004e-01
-2.905229999999999757e-01
-2.814889999999999892e-01
-2.893149999999999888e-01
-2.919109999999999761e-01
-2.802729999999999944e-01
-2.915900000000000158e-01
-2.887210000000000054e-01
-2.908140000000000169e-01
-3.084689999999999932e-01
-2.947279999999999900e-01
-2.974359999999999782e-01
-3.152840000000000087e-01
-2.819130000000000247e-01
-2.886690000000000089e-01
-2.955900000000000194e-01
-2.878830000000000000e-01
-2.826549999999999896e-01
-2.858769999999999922e-01
-2.929780000000000162e-01
-3.002909999999999746e-01
-2.853530000000000233e-01
-2.872750000000000026e-01
-2.971690000000000165e-01
-2.887430000000000274e-01
-2.925340000000000162e-01
-2.986460000000000226e-01
-2.946759999999999935e-01
-2.908450000000000202e-01
-2.897219999999999795e-01
-2.950249999999999817e-01
-2.820380000000000109e-01
-3.109029999999999849e-01
-2.972350000000000270e-01
-2.991079999999999850e-01
-2.869950000000000001e-01
-2.976909999999999834e-01
-2.919089999999999741e-01
-2.953459999999999974e-01
-2.962359999999999993e-01
-2.880179999999999962e-01
-2.882379999999999942e-01
-2.894990000000000063e-01
-3.079049999999999843e-01
-2.936340000000000061e-01
-2.942230000000000123e-01
-2.842669999999999919e-01
-2.950550000000000117e-01
-2.939979999999999816e-01
-2.868609999999999771e-01
-2.979499999999999926e-01
-2.839420000000000277e-01
-2.840679999999999872e-01
-2.935099999999999931e-01
-3.089390000000000192e-01
-2.982159999999999811e-01
-2.810650000000000093e-01
-2.866119999999999779e-01
-2.850170000000000203e-01
-3.079200000000000270e-01
-2.964700000000000113e-01
-2.968020000000000103e-01
-3.016269999999999785e-01
-3.073449999999999793e-01
-2.851150000000000073e-01
-2.911259999999999959e-01
-2.888930000000000109e-01
-2.804340000000000166e-01
-2.905519999999999770e-01
-2.992790000000000172e-01
-2.926989999999999870e-01
-3.049299999999999788e-01
-2.895579999999999821e-01
-2.903970000000000162e-01
-2.686020000000000074e-01
-2.941139999999999866e-01
-2.949780000000000180e-01
-2.959240000000000204e-01
-2.922089999999999965e-01
-2.912879999999999914e-01
-2.809630000000000183e-01
-2.874530000000000141e-01
-2.859260000000000135e-01
-2.942489999999999828e-01
-2.911969999999999836e-01
-2.772220000000000240e-01
-2.861580000000000235e-01
-2.884970000000000034e-01
-2.955960000000000254e-01
-2.856290000000000218e-01
-2.906810000000000227e-01
-3.086979999999999724e-01
-2.918930000000000136e-01
-2.976170000000000204e-01
-2.772089999999999832e-01
-2.814229999999999787e-01
-2.948040000000000105e-01
-3.036220000000000030e-01
-2.830179999999999918e-01
-3.101369999999999960e-01
-2.894889999999999963e-01
-3.028250000000000108e-01
-2.957339999999999969e-01
-2.957460000000000089e-01
-2.845239999999999991e-01
-2.887149999999999994e-01
-2.927429999999999755e-01
-2.939309999999999978e-01
-2.988339999999999885e-01
-3.029560000000000031e-01
-2.985800000000000121e-01
-2.974040000000000017e-01
-2.797939999999999872e-01
-2.949379999999999780e-01
-3.100450000000000150e-01
-2.889470000000000094e-01
-2.936670000000000114e-01
-2.933660000000000156e-01
-2.988830000000000098e-01
-2.862759999999999749e-01
-3.072250000000000258e-01
-2.842990000000000239e-01
-2.927500000000000102e-01
-2.866469999999999851e-01
-2.972810000000000175e-01
-3.021400000000000197e-01
-2.811489999999999823e-01
-2.919629999999999725e-01
-2.989350000000000063e-01
-2.885280000000000067e-01
-3.067460000000000186e-01
-2.942290000000000183e-01
-2.861500000000000155e-01
-2.838109999999999800e-01
-2.928279999999999772e-01
-2.929470000000000129e-01
-2.864380000000000259e-01
-2.825509999999999966e-01
-2.870500000000000274e-01
-2.984669999999999823e-01
-3.109480000000000022e-01
-3.126059999999999950e-01
-3.011420000000000208e-01
-3.045970000000000066e-01
-2.953239999999999754e-01
-3.069180000000000241e-01
-2.886880000000000002e-01
-2.949359999999999760e-01
-2.960579999999999878e-01
-2.929889999999999994e-01
-2.850820000000000021e-01
-2.934640000000000026e-01
-2.993290000000000117e-01
-2.966960000000000153e-01
-2.855800000000000005e-01
-2.904379999999999740e-01
-2.851670000000000038e-01
-2.913999999999999924e-01
-3.008469999999999756e-01
-2.987049999999999983e-01
-3.122719999999999940e-01
-2.925630000000000175e-01
-2.926529999999999965e-01
-3.121280000000000165e-01
-2.952750000000000097e-01
-2.911179999999999879e-01
-2.778100000000000014e-01
-3.050329999999999986e-01
-2.955110000000000237e-01
-2.800880000000000036e-01
-2.870920000000000138e-01
-2.899780000000000135e-01
-3.074549999999999783e-01
-3.027960000000000096e-01
-3.035900000000000265e-01
-3.004430000000000156e-01
-2.944149999999999823e-01
-2.849869999999999903e-01
-3.050229999999999886e-01
-3.093440000000000079e-01
-3.017489999999999895e-01
-2.913990000000000191e-01
-3.075720000000000121e-01
-2.892440000000000011e-01
-2.879889999999999950e-01
-2.863040000000000029e-01
-2.831980000000000053e-01
-2.991500000000000270e-01
-3.006070000000000131e-01
-2.904169999999999807e-01
-2.983330000000000148e-01
-2.883410000000000140e-01
-2.801969999999999739e-01
-3.128230000000000177e-01
-2.779599999999999849e-01
-3.087010000000000032e-01
-2.947640000000000260e-01
-3.038219999999999810e-01
-2.882520000000000082e-01
-2.992290000000000227e-01
-2.991559999999999775e-01
-2.909340000000000259e-01
-2.870110000000000161e-01
-2.945070000000000188e-01
-2.883919999999999817e-01
-2.914039999999999964e-01
-2.883600000000000052e-01
-3.032699999999999840e-01
-2.939939999999999776e-01
-3.030019999999999936e-01
-2.939820000000000211e-01
-2.980030000000000179e-01
-2.912779999999999814e-01
-2.862680000000000224e-01
-2.985419999999999741e-01
-2.919340000000000268e-01
-2.959840000000000249e-01
-2.926099999999999812e-01
-3.016249999999999765e-01
-3.023879999999999901e-01
-2.971269999999999745e-01
-2.946230000000000238e-01
-3.029089999999999838e-01
-2.833309999999999995e-01
-3.066459999999999742e-01
-2.840840000000000032e-01
-2.979069999999999774e-01
-3.130629999999999802e-01
-2.964849999999999985e-01
-2.870289999999999786e-01
-2.882290000000000130e-01
-2.868559999999999999e-01
-2.893310000000000048e-01
-3.043370000000000242e-01
-2.944419999999999815e-01
-2.985559999999999881e-01
-2.936849999999999739e-01
-2.829340000000000188e-01
-2.920059999999999878e-01
-3.051329999999999876e-01
-2.962110000000000021e-01
-2.823280000000000234e-01
-2.870530000000000026e-01
-3.002139999999999809e-01
-3.130519999999999969e-01
-2.983160000000000256e-01
-2.853410000000000113e-01
-2.896050000000000013e-01
-3.010570000000000190e-01
-2.999629999999999797e-01
-2.979439999999999866e-01
-2.882629999999999915e-01
-3.003020000000000134e-01
-3.035349999999999993e-01
-2.933149999999999924e-01
-2.849079999999999946e-01
-2.996840000000000059e-01
-2.932330000000000214e-01
-2.861909999999999732e-01
-2.941199999999999926e-01
-2.887750000000000039e-01
-2.905730000000000257e-01
-3.046010000000000106e-01
-2.958640000000000159e-01
-2.984319999999999751e-01
-2.999789999999999957e-01
-3.034160000000000190e-01
-3.072940000000000116e-01
-2.866130000000000067e-01
-2.976219999999999977e-01
-2.985039999999999916e-01
-2.915059999999999873e-01
-2.822310000000000096e-01
-2.937890000000000224e-01
-3.029660000000000131e-01
-2.855539999999999745e-01
-2.897100000000000231e-01
-2.873839999999999728e-01
-2.951269999999999727e-01
-3.101240000000000108e-01
-2.933870000000000089e-01
-2.804059999999999886e-01
-2.824820000000000109e-01
-2.895449999999999968e-01
-2.899689999999999768e-01
-2.828479999999999883e-01
-2.865530000000000022e-01
-2.999859999999999749e-01
-2.848339999999999761e-01
-2.856290000000000218e-01
-2.935329999999999884e-01
-3.144779999999999798e-01
-2.853660000000000085e-01
-2.890900000000000136e-01
-2.880349999999999855e-01
-2.930240000000000067e-01
-2.984109999999999818e-01
-2.834169999999999745e-01
-3.179719999999999769e-01
-3.084200000000000275e-01
-3.013109999999999955e-01
-2.843390000000000084e-01
-2.855300000000000060e-01
-2.930719999999999992e-01
-2.999640000000000084e-01
-2.902399999999999980e-01
-2.834599999999999898e-01
-2.880119999999999902e-01
-2.987330000000000263e-01
-2.985209999999999808e-01
-2.977520000000000167e-01
-3.045689999999999786e-01
-2.923209999999999975e-01
-3.082739999999999925e-01
-2.979829999999999979e-01
-2.899410000000000043e-01
-2.883069999999999800e-01
-2.963919999999999888e-01
-2.902339999999999920e-01
-2.815409999999999857e-01
-2.829909999999999926e-01
-2.979410000000000114e-01
-3.026280000000000081e-01
-2.925610000000000155e-01
-2.870329999999999826e-01
-3.091130000000000266e-01
-2.880460000000000242e-01
-3.007610000000000006e-01
-2.985289999999999888e-01
-3.071059999999999901e-01
-2.953669999999999907e-01
-2.937540000000000151e-01
-2.799300000000000122e-01
-2.883129999999999860e-01
-2.821319999999999939e-01
-2.974849999999999994e-01
-2.852020000000000111e-01
-2.839829999999999854e-01
-2.871719999999999828e-01
-2.876529999999999920e-01
-2.888510000000000244e-01
-2.996940000000000159e-01
-2.891489999999999894e-01
-2.842489999999999739e-01
-2.873229999999999951e-01
-2.914070000000000271e-01
-2.958479999999999999e-01
-2.894010000000000193e-01
-2.867770000000000041e-01
-2.953640000000000154e-01
-2.953660000000000174e-01
-2.908540000000000014e-01
-3.081599999999999895e-01
-2.960389999999999966e-01
-2.841219999999999857e-01
-2.881750000000000145e-01
-2.830300000000000038e-01
-2.935090000000000199e-01
-2.891599999999999726e-01
-2.940329999999999888e-01
-2.955619999999999914e-01
-2.902080000000000215e-01
-2.851810000000000178e-01
-2.949439999999999840e-01
-2.825400000000000134e-01
-2.944209999999999883e-01
-2.832000000000000073e-01
-2.878169999999999895e-01
-2.894090000000000273e-01
-2.965630000000000210e-01
-3.019200000000000217e-01
-2.849169999999999758e-01
-2.981909999999999838e-01
-2.954370000000000052e-01
-3.039200000000000235e-01
-2.991280000000000050e-01
-2.869929999999999981e-01
-3.019100000000000117e-01
-3.057320000000000038e-01
-2.927000000000000157e-01
-2.818430000000000102e-01
-2.809320000000000150e-01
-2.930180000000000007e-01
-2.974260000000000237e-01
-2.793300000000000227e-01
-2.929019999999999957e-01
-3.024580000000000046e-01
-2.872310000000000141e-01
-2.842609999999999859e-01
-2.868700000000000139e-01
-2.820159999999999889e-01
-2.769989999999999952e-01
-2.828319999999999723e-01
-2.803430000000000089e-01
-2.935809999999999809e-01
-2.782569999999999766e-01
-2.955749999999999766e-01
-2.900190000000000268e-01
-2.860820000000000030e-01
-3.116789999999999838e-01
-2.867149999999999976e-01
-2.930479999999999752e-01
-2.930969999999999964e-01
-3.077790000000000248e-01
-2.994379999999999820e-01
-2.892060000000000186e-01
-2.961280000000000023e-01
-2.942670000000000008e-01
-2.902520000000000100e-01
-2.835810000000000275e-01
-2.818339999999999734e-01
-3.102019999999999778e-01
-2.954910000000000037e-01
-3.123199999999999865e-01
-2.896340000000000026e-01
-3.039760000000000240e-01
-2.884519999999999862e-01
-2.965160000000000018e-01
-2.885889999999999844e-01
-2.947830000000000172e-01
-2.868609999999999771e-01
-2.914530000000000176e-01
-3.052400000000000113e-01
-2.893439999999999901e-01
-2.766270000000000118e-01
-2.890599999999999836e-01
-2.808829999999999938e-01
-2.898410000000000153e-01
-3.056479999999999753e-01
-2.895699999999999941e-01
-2.880530000000000035e-01
-3.109029999999999849e-01
-2.853029999999999733e-01
-2.828060000000000018e-01
-3.083770000000000122e-01
-3.041880000000000139e-01
-2.934950000000000059e-01
-2.912000000000000144e-01
-2.970829999999999860e-01
-3.032369999999999788e-01
-2.896190000000000153e-01
-2.984990000000000143e-01
-2.922540000000000138e-01
-3.048569999999999891e-01
-2.872879999999999878e-01
-2.851929999999999743e-01
-2.920070000000000165e-01
-2.905260000000000065e-01
-2.891960000000000086e-01
-2.941570000000000018e-01
-3.028060000000000196e-01
-2.925289999999999835e-01
-2.799590000000000134e-01
-2.964680000000000093e-01
-2.856830000000000203e-01
-2.934829999999999939e-01
-2.824289999999999856e-01
-2.865559999999999774e-01
-2.923749999999999960e-01
-2.913319999999999799e-01
-2.990269999999999873e-01
-2.947589999999999932e-01
-2.933270000000000044e-01
-2.855539999999999745e-01
-2.909630000000000272e-01
-2.867770000000000041e-01
-2.890590000000000104e-01
-2.895869999999999833e-01
-2.895849999999999813e-01
-2.828740000000000143e-01
-2.886790000000000189e-01
-2.861480000000000135e-01
-3.057920000000000083e-01
-2.981380000000000141e-01
-3.040120000000000045e-01
-2.991190000000000238e-01
-2.946790000000000243e-01
-2.970499999999999807e-01
-2.923339999999999828e-01
-3.045490000000000141e-01
-2.786549999999999860e-01
-2.935789999999999789e-01
-2.847839999999999816e-01
-2.995940000000000270e-01
-2.892939999999999956e-01
-2.969069999999999765e-01
-3.038480000000000070e-01
-3.002730000000000121e-01
-2.797660000000000147e-01
-2.867009999999999836e-01
-3.116900000000000226e-01
-2.974760000000000182e-01
-3.020780000000000132e-01
-3.069319999999999826e-01
-2.873689999999999856e-01
-3.037920000000000065e-01
-2.881270000000000220e-01
-2.918580000000000063e-01
-2.886520000000000197e-01
-3.079689999999999928e-01
-2.914269999999999916e-01
-3.040780000000000149e-01
-2.884780000000000122e-01
-2.900960000000000205e-01
-3.086749999999999772e-01
-2.882270000000000110e-01
-2.897569999999999868e-01
-2.984220000000000206e-01
-2.921159999999999868e-01
-2.926489999999999925e-01
-2.893260000000000276e-01
-2.818620000000000014e-01
-2.943839999999999790e-01
-2.873390000000000111e-01
-2.809209999999999763e-01
-2.865230000000000277e-01
-3.089410000000000212e-01
-3.003930000000000211e-01
-2.907100000000000239e-01
-2.999290000000000012e-01
-2.943589999999999818e-01
-2.916219999999999923e-01
-2.954800000000000204e-01
-2.887230000000000074e-01
-3.122690000000000188e-01
-2.921819999999999973e-01
-3.036619999999999875e-01
-2.981610000000000094e-01
-2.827649999999999886e-01
-2.918299999999999783e-01
-2.982110000000000039e-01
-2.828970000000000096e-01
-2.958560000000000079e-01
-3.048210000000000086e-01
-3.012179999999999858e-01
-2.857379999999999920e-01
-2.983660000000000201e-01
-2.949149999999999827e-01
-2.960169999999999746e-01
-2.890980000000000216e-01
-2.897150000000000003e-01
-2.881810000000000205e-01
-2.919289999999999941e-01
-2.794980000000000242e-01
-2.900159999999999960e-01
-2.981460000000000221e-01
-2.985180000000000056e-01
-2.886610000000000009e-01
-2.880300000000000082e-01
-2.927750000000000075e-01
-3.011989999999999945e-01
-3.135240000000000249e-01
-2.909780000000000144e-01
-3.042340000000000044e-01
-3.019439999999999902e-01
-2.981630000000000114e-01
-2.955459999999999754e-01
-2.854909999999999948e-01
-2.964570000000000261e-01
-2.790480000000000183e-01
-2.905150000000000232e-01
-2.917339999999999933e-01
-2.841799999999999882e-01
-3.137900000000000134e-01
-2.842149999999999954e-01
-3.129460000000000020e-01
-2.896989999999999843e-01
-2.899729999999999808e-01
-2.822149999999999936e-01
-2.874249999999999861e-01
-2.918910000000000116e-01
-3.001719999999999944e-01
-2.947839999999999905e-01
-2.848049999999999748e-01
-2.925980000000000247e-01
-2.879129999999999745e-01
-3.071209999999999773e-01
-2.814059999999999895e-01
-2.884140000000000037e-01
-2.828209999999999891e-01
-2.955670000000000242e-01
-2.886699999999999822e-01
-2.899349999999999983e-01
-2.922290000000000165e-01
-2.922719999999999763e-01
-2.775190000000000157e-01
-2.956659999999999844e-01
-2.906730000000000147e-01
-2.887939999999999952e-01
-2.900309999999999833e-01
-2.985909999999999953e-01
-2.924200000000000133e-01
-3.108909999999999729e-01
-2.891989999999999839e-01
-2.971099999999999852e-01
-2.934350000000000014e-01
-2.932529999999999859e-01
-2.951659999999999839e-01
-2.847640000000000171e-01
-3.000059999999999949e-01
-2.969359999999999777e-01
-2.950889999999999902e-01
-2.840480000000000227e-01
-2.817680000000000184e-01
-2.923479999999999968e-01
-2.967690000000000050e-01
-2.897370000000000223e-01
-3.031809999999999783e-01
-2.913490000000000246e-01
-2.991079999999999850e-01
-2.886020000000000252e-01
-2.925409999999999955e-01
-2.877199999999999758e-01
-2.988160000000000260e-01
-2.896799999999999931e-01
-2.992730000000000112e-01
-3.031710000000000238e-01
-2.905539999999999790e-01
-2.881270000000000220e-01
-2.790739999999999887e-01
-2.985149999999999748e-01
-2.891299999999999981e-01
-2.834909999999999930e-01
-2.910659999999999914e-01
-2.876500000000000168e-01
-2.871609999999999996e-01
-2.845779999999999976e-01
-2.922399999999999998e-01
-2.871049999999999991e-01
-2.856759999999999855e-01
-2.945900000000000185e-01
-2.827450000000000241e-01
-2.977420000000000067e-01
-2.952239999999999864e-01
-3.108199999999999852e-01
-2.933580000000000076e-01
-2.956360000000000099e-01
-2.946110000000000118e-01
-2.834679999999999978e-01
-3.010660000000000003e-01
-2.870090000000000141e-01
-2.867190000000000016e-01
-2.860659999999999870e-01
-3.122940000000000160e-01
-2.850989999999999913e-01
-3.016630000000000145e-01
-2.872120000000000228e-01
-2.853129999999999833e-01
-2.918819999999999748e-01
-2.888270000000000004e-01
-2.841040000000000232e-01
-2.989789999999999948e-01
-2.855380000000000140e-01
-2.999160000000000159e-01
-2.941670000000000118e-01
-2.955110000000000237e-01
-2.990010000000000168e-01
-2.936980000000000146e-01
-2.830529999999999990e-01
-2.942139999999999755e-01
-2.871980000000000088e-01
-2.913839999999999764e-01
-3.095430000000000126e-01
-3.055880000000000263e-01
-2.880550000000000055e-01
-2.862810000000000077e-01
-2.988669999999999938e-01
-3.119569999999999843e-01
-2.896090000000000053e-01
-2.966090000000000115e-01
-2.925099999999999922e-01
-2.976449999999999929e-01
-2.983589999999999853e-01
-2.798350000000000004e-01
-2.975880000000000192e-01
-2.911750000000000171e-01
-2.861719999999999819e-01
-2.886969999999999814e-01
-2.900889999999999858e-01
-3.008469999999999756e-01
-2.838620000000000032e-01
-2.864800000000000124e-01
-3.045169999999999821e-01
-2.933620000000000116e-01
-2.908310000000000062e-01
-2.838339999999999752e-01
-2.901839999999999975e-01
-2.816569999999999907e-01
-2.907150000000000012e-01
-2.886839999999999962e-01
-2.819130000000000247e-01
-2.977029999999999954e-01
-2.763749999999999818e-01
-3.003620000000000179e-01
-2.867179999999999729e-01
-2.873499999999999943e-01
-2.932870000000000199e-01
-2.851380000000000026e-01
-2.918080000000000118e-01
-2.964249999999999940e-01
-2.996090000000000142e-01
-2.778559999999999919e-01
-2.951520000000000254e-01
-2.815540000000000265e-01
-2.897879999999999900e-01
-2.913359999999999839e-01
-2.920659999999999923e-01
-2.896449999999999858e-01
-2.874720000000000053e-01
-2.955809999999999826e-01
-2.833080000000000043e-01
-2.808910000000000018e-01
-2.974069999999999769e-01
-2.896159999999999846e-01
-2.875880000000000103e-01
-2.947290000000000187e-01
-2.987859999999999960e-01
-3.049930000000000141e-01
-2.839030000000000165e-01
-3.069560000000000066e-01
-3.073560000000000181e-01
-3.116110000000000269e-01
-3.052349999999999786e-01
-2.831910000000000260e-01
-2.851210000000000133e-01
-3.050539999999999918e-01
-3.077110000000000123e-01
-3.023100000000000231e-01
-2.913899999999999824e-01
-3.068119999999999736e-01
-2.853209999999999913e-01
-3.094439999999999968e-01
-2.882310000000000150e-01
-2.871159999999999823e-01
-2.810039999999999760e-01
-2.927279999999999882e-01
-2.947779999999999845e-01
-2.936259999999999981e-01
-2.994709999999999872e-01
-3.015689999999999760e-01
-2.879559999999999897e-01
-3.021130000000000204e-01
-2.959280000000000244e-01
-2.956369999999999831e-01
-3.113879999999999981e-01
-2.994709999999999872e-01
-2.825329999999999786e-01
-2.767569999999999752e-01
-3.019249999999999989e-01
-3.029439999999999911e-01
-2.796799999999999842e-01
-2.871360000000000023e-01
-3.024129999999999874e-01
-2.855719999999999925e-01
-2.786290000000000155e-01
-2.945769999999999778e-01
-3.039240000000000275e-01
-2.867540000000000089e-01
-2.978009999999999824e-01
-2.895989999999999953e-01
-2.811919999999999975e-01
-2.827140000000000208e-01
-2.902959999999999985e-01
-2.787649999999999850e-01
-3.067540000000000266e-01
-2.856739999999999835e-01
-3.020709999999999784e-01
-2.782560000000000033e-01
-2.853700000000000125e-01
-2.962509999999999866e-01
-2.843749999999999889e-01
-2.872109999999999941e-01
-2.872620000000000173e-01
-2.893560000000000021e-01
-3.057360000000000078e-01
-2.805250000000000243e-01
-2.934599999999999986e-01
-2.924610000000000265e-01
-3.064299999999999802e-01
-2.919129999999999781e-01
-2.996260000000000034e-01
-2.920459999999999723e-01
-2.843410000000000104e-01
-2.864700000000000024e-01
-3.138480000000000159e-01
-2.819630000000000192e-01
-2.958910000000000151e-01
-2.911070000000000046e-01
-3.003950000000000231e-01
-3.131289999999999907e-01
-2.919519999999999893e-01
-2.885969999999999924e-01
-2.884220000000000117e-01
-3.128219999999999890e-01
-2.916360000000000063e-01
-2.969990000000000130e-01
-2.814429999999999987e-01
-2.913850000000000051e-01
-2.912250000000000116e-01
-2.900619999999999865e-01
-2.908999999999999919e-01
-2.957150000000000056e-01
-2.878299999999999748e-01
-2.887669999999999959e-01
-2.886830000000000229e-01
-2.972310000000000230e-01
-2.991400000000000170e-01
-3.022589999999999999e-01
-3.087929999999999842e-01
-2.912540000000000129e-01
-2.915449999999999986e-01
-3.014609999999999790e-01
-2.824590000000000156e-01
-3.109390000000000209e-01
-2.966230000000000255e-01
-2.893549999999999733e-01
-2.864539999999999864e-01
-3.061130000000000240e-01
-2.902040000000000175e-01
-2.868060000000000054e-01
-2.903310000000000057e-01
-3.036380000000000190e-01
-2.885300000000000087e-01
-3.016090000000000160e-01
-3.016460000000000252e-01
-2.814169999999999727e-01
-3.087810000000000277e-01
-2.869630000000000236e-01
-2.924780000000000157e-01
-3.001159999999999939e-01
-3.038540000000000130e-01
-2.957580000000000209e-01
-2.875159999999999938e-01
-2.850520000000000276e-01
-3.095510000000000206e-01
-2.957429999999999781e-01
-2.883410000000000140e-01
-2.855119999999999880e-01
-2.966139999999999888e-01
-2.981489999999999974e-01
-2.909610000000000252e-01
-2.839530000000000109e-01
-3.093119999999999759e-01
-3.109999999999999987e-01
-2.905619999999999870e-01
-2.978649999999999909e-01
-2.954479999999999884e-01
-2.979390000000000094e-01
-2.922049999999999925e-01
-2.922710000000000030e-01
-2.825840000000000019e-01
-3.010229999999999850e-01
-2.844149999999999734e-01
-2.945180000000000020e-01
-2.817850000000000077e-01
-2.789400000000000213e-01
-2.893009999999999748e-01
-2.932910000000000239e-01
-2.931960000000000122e-01
-2.962130000000000041e-01
-2.982850000000000223e-01
-3.116269999999999873e-01
-3.012670000000000070e-01
-2.872580000000000133e-01
-2.965320000000000178e-01
-2.914809999999999901e-01
-2.931500000000000217e-01
-2.940920000000000201e-01
-2.805300000000000016e-01
-2.916549999999999976e-01
-2.861909999999999732e-01
-2.808470000000000133e-01
-2.777220000000000244e-01
-2.908439999999999914e-01
-2.888069999999999804e-01
-3.021960000000000202e-01
-3.126249999999999862e-01
-3.137480000000000269e-01
-2.851449999999999818e-01
-2.719380000000000130e-01
-2.871569999999999956e-01
-2.904660000000000020e-01
-2.933339999999999836e-01
-3.092520000000000269e-01
-2.857870000000000132e-01
-2.962080000000000268e-01
-2.924399999999999777e-01
-3.016889999999999850e-01
-2.887799999999999812e-01
-2.880489999999999995e-01
-2.971139999999999892e-01
-3.062570000000000014e-01
-3.156610000000000249e-01
-2.851770000000000138e-01
-2.921099999999999808e-01
-3.069209999999999994e-01
-2.879510000000000125e-01
-2.909689999999999777e-01
-2.973759999999999737e-01
-3.027619999999999756e-01
-2.849419999999999731e-01
-3.120459999999999900e-01
-2.814840000000000120e-01
-3.082190000000000207e-01
-3.043680000000000274e-01
-2.915030000000000121e-01
-3.011719999999999953e-01
-2.896659999999999791e-01
-3.027690000000000103e-01
-2.886380000000000057e-01
-3.027590000000000003e-01
-2.956469999999999931e-01
-2.855329999999999813e-01
-2.909649999999999737e-01
-2.984539999999999971e-01
-2.847680000000000211e-01
-2.908620000000000094e-01
-3.072179999999999911e-01
-2.896009999999999973e-01
-2.895980000000000221e-01
-2.861620000000000275e-01
-2.935340000000000171e-01
-2.864700000000000024e-01
-2.840070000000000094e-01
-2.989160000000000150e-01
-2.879499999999999837e-01
-3.008350000000000191e-01
-2.876449999999999840e-01
-3.014720000000000177e-01
-3.063839999999999897e-01
-2.915079999999999893e-01
-2.949300000000000255e-01
-2.931250000000000244e-01
-2.859129999999999727e-01
-2.862120000000000219e-01
-3.049379999999999868e-01
-2.904709999999999792e-01
-2.966730000000000200e-01
-3.063379999999999992e-01
-3.019879999999999787e-01
-2.959180000000000144e-01
-2.874579999999999913e-01
-2.853479999999999905e-01
-2.843890000000000029e-01
-2.872600000000000153e-01
-2.974559999999999982e-01
-3.054189999999999960e-01
-3.032250000000000223e-01
-3.016059999999999852e-01
-2.866489999999999871e-01
-2.799400000000000222e-01
-2.828249999999999931e-01
-2.959970000000000101e-01
-2.933200000000000252e-01
-2.830969999999999875e-01
-2.834709999999999730e-01
-2.940360000000000196e-01
-2.921139999999999848e-01
-2.714920000000000111e-01
-2.857399999999999940e-01
-2.896500000000000186e-01
-3.086269999999999847e-01
-2.906940000000000079e-01
-2.963640000000000163e-01
-2.790500000000000203e-01
-2.948140000000000205e-01
-2.938160000000000216e-01
-2.839809999999999834e-01
-2.890110000000000179e-01
-2.866299999999999959e-01
-2.958330000000000126e-01
-2.756910000000000194e-01
-2.937290000000000179e-01
-2.974100000000000077e-01
-2.981030000000000069e-01
-2.821429999999999771e-01
-2.885710000000000219e-01
-3.026739999999999986e-01
-2.818930000000000047e-01
-2.824969999999999981e-01
-2.957799999999999874e-01
-2.995349999999999957e-01
-2.992420000000000080e-01
-3.055379999999999763e-01
-3.041909999999999892e-01
-2.954879999999999729e-01
-2.856279999999999930e-01
-3.107670000000000154e-01
-2.837779999999999747e-01
-3.144339999999999913e-01
-2.868209999999999926e-01
-2.842669999999999919e-01
-2.890929999999999889e-01
-2.915960000000000218e-01
-2.892480000000000051e-01
-2.905750000000000277e-01
-2.896310000000000273e-01
-2.909530000000000172e-01
-2.857640000000000180e-01
-2.918100000000000138e-01
-2.832319999999999838e-01
-2.912449999999999761e-01
-3.014660000000000117e-01
-2.949100000000000055e-01
-3.122179999999999955e-01
-2.864349999999999952e-01
-2.919019999999999948e-01
-2.922930000000000250e-01
-3.142059999999999853e-01
-2.938479999999999981e-01
-2.857999999999999985e-01
-3.055390000000000050e-01
-2.929930000000000034e-01
-2.897870000000000168e-01
-2.934490000000000154e-01
-2.904909999999999992e-01
-2.942020000000000191e-01
-2.950639999999999930e-01
-2.749480000000000257e-01
-3.055399999999999783e-01
-2.885860000000000092e-01
-2.894229999999999858e-01
-2.956429999999999891e-01
-2.921099999999999808e-01
-2.932489999999999819e-01
-2.855249999999999733e-01
-2.857729999999999992e-01
-2.867129999999999956e-01
-2.986619999999999830e-01
-2.936099999999999821e-01
-2.828049999999999731e-01
-3.002319999999999989e-01
-2.894450000000000078e-01
-3.025780000000000136e-01
-2.940420000000000256e-01
-2.923149999999999915e-01
-2.829849999999999866e-01
-3.104100000000000192e-01
-2.971159999999999912e-01
-2.925479999999999747e-01
-3.000149999999999761e-01
-2.944590000000000263e-01
-2.827520000000000033e-01
-2.860940000000000150e-01
-2.911610000000000031e-01
-2.955990000000000006e-01
-2.821230000000000127e-01
-2.871949999999999781e-01
-2.872250000000000081e-01
-2.925889999999999880e-01
-2.990720000000000045e-01
-3.065959999999999797e-01
-3.133610000000000007e-01
-2.904530000000000167e-01
-2.837100000000000177e-01
-3.172550000000000092e-01
-2.910150000000000237e-01
-3.043170000000000042e-01
-3.053569999999999895e-01
-2.993500000000000050e-01
-3.011780000000000013e-01
-2.887419999999999987e-01
-2.947750000000000092e-01
-2.898819999999999730e-01
-2.935050000000000159e-01
-3.046240000000000059e-01
-2.859530000000000127e-01
-2.983649999999999913e-01
-2.966260000000000008e-01
-2.804159999999999986e-01
-2.889809999999999879e-01
-3.035640000000000005e-01
-2.924340000000000273e-01
-2.931380000000000097e-01
-3.059250000000000025e-01
-2.840050000000000074e-01
-2.926130000000000120e-01
-2.844570000000000154e-01
-3.074899999999999856e-01
-2.926139999999999852e-01
-2.900019999999999820e-01
-2.957350000000000256e-01
-3.011280000000000068e-01
-2.869729999999999781e-01
-2.911730000000000151e-01
-2.835820000000000007e-01
-3.007299999999999973e-01
-2.976650000000000129e-01
-2.988350000000000173e-01
-2.821529999999999871e-01
-2.829189999999999761e-01
-2.898359999999999825e-01
-3.058489999999999820e-01
-2.901050000000000018e-01
-2.923979999999999912e-01
-2.898410000000000153e-01
-2.994990000000000152e-01
-2.909820000000000184e-01
-3.088670000000000027e-01
-2.733039999999999914e-01
-2.893100000000000116e-01
-3.100260000000000238e-01
-2.936449999999999894e-01
-2.731709999999999972e-01
-3.017920000000000047e-01
-2.941670000000000118e-01
-2.991539999999999755e-01
-2.976610000000000089e-01
-2.974890000000000034e-01
-3.081869999999999887e-01
-2.846299999999999941e-01
-3.017980000000000107e-01
-2.965050000000000185e-01
-3.073239999999999861e-01
-2.988160000000000260e-01
-2.814119999999999955e-01
-3.052309999999999746e-01
-3.029379999999999851e-01
-2.865349999999999842e-01
-2.938000000000000056e-01
-2.932239999999999847e-01
-2.966090000000000115e-01
-3.008339999999999903e-01
-3.120299999999999740e-01
-3.008759999999999768e-01
-3.097489999999999966e-01
-2.954209999999999892e-01
-3.053370000000000251e-01
-2.940510000000000068e-01
-2.837200000000000277e-01
-2.800190000000000179e-01
-2.870019999999999794e-01
-2.963049999999999851e-01
-3.107800000000000007e-01
-2.875599999999999823e-01
-2.962609999999999966e-01
-3.051019999999999843e-01
-2.897580000000000156e-01
-2.989999999999999880e-01
-2.858749999999999902e-01
-3.061130000000000240e-01
-2.811819999999999875e-01
-2.886159999999999837e-01
-2.989020000000000010e-01
-2.997349999999999737e-01
-2.950599999999999890e-01
-3.009160000000000168e-01
-2.981670000000000154e-01
-3.112320000000000086e-01
-3.065499999999999892e-01
-2.935679999999999956e-01
-2.992099999999999760e-01
-2.853359999999999785e-01
-2.929840000000000222e-01
-2.923749999999999960e-01
-2.838879999999999737e-01
-2.908819999999999739e-01
-2.999330000000000052e-01
-2.951829999999999732e-01
-3.001059999999999839e-01
-2.982770000000000143e-01
-2.951250000000000262e-01
-2.844140000000000001e-01
-2.912429999999999741e-01
-2.931250000000000244e-01
-3.089680000000000204e-01
-3.136079999999999979e-01
-2.915639999999999898e-01
-3.076690000000000258e-01
-3.000450000000000061e-01
-2.889709999999999779e-01
-2.846549999999999914e-01
-3.058379999999999987e-01
-2.969950000000000090e-01
-2.873080000000000078e-01
-2.856279999999999930e-01
-2.888410000000000144e-01
-2.917890000000000206e-01
-2.764139999999999930e-01
-2.939649999999999763e-01
-2.881520000000000192e-01
-2.962919999999999998e-01
-2.971409999999999885e-01
-2.979319999999999746e-01
-3.104879999999999862e-01
-2.902799999999999825e-01
-3.030720000000000081e-01
-2.730170000000000097e-01
-2.889209999999999834e-01
-2.854630000000000223e-01
-3.051630000000000176e-01
-3.007050000000000001e-01
-2.880300000000000082e-01
-2.932420000000000027e-01
-2.869650000000000256e-01
-2.872469999999999746e-01
-2.958759999999999724e-01
-2.975510000000000099e-01
-3.094120000000000203e-01
-2.977839999999999931e-01
-2.868870000000000031e-01
-2.943330000000000113e-01
-2.876879999999999993e-01
-2.991739999999999955e-01
-2.818439999999999834e-01
-2.987179999999999835e-01
-3.085100000000000064e-01
-2.838930000000000065e-01
-2.949419999999999820e-01
-2.896000000000000241e-01
-3.113060000000000271e-01
-2.818100000000000049e-01
-2.868399999999999839e-01
-2.855659999999999865e-01
-3.020169999999999799e-01
-2.991849999999999787e-01
-3.095490000000000186e-01
-2.882779999999999787e-01
-2.872859999999999858e-01
-2.929379999999999762e-01
-3.081729999999999747e-01
-2.937370000000000259e-01
-2.917580000000000173e-01
-2.890559999999999796e-01
-3.174009999999999887e-01
-2.894570000000000198e-01
-2.833609999999999740e-01
-2.830110000000000126e-01
-2.907819999999999849e-01
-3.008210000000000051e-01
-2.880929999999999880e-01
-2.840090000000000114e-01
-2.781100000000000239e-01
-2.845719999999999916e-01
-2.913060000000000094e-01
-2.873800000000000243e-01
-3.061340000000000172e-01
-2.945889999999999898e-01
-2.832200000000000273e-01
-2.967489999999999850e-01
-2.881110000000000060e-01
-2.899410000000000043e-01
-3.001150000000000206e-01
-3.111869999999999914e-01
-2.811660000000000270e-01
-2.856929999999999747e-01
-2.930610000000000159e-01
-2.872449999999999726e-01
-2.956739999999999924e-01
-2.917210000000000081e-01
-3.082940000000000125e-01
-2.823599999999999999e-01
-2.906489999999999907e-01
-2.936540000000000261e-01
-2.812850000000000072e-01
-2.922159999999999758e-01
-2.848060000000000036e-01
-2.978529999999999789e-01
-2.986719999999999930e-01
-2.873700000000000143e-01
-2.847160000000000246e-01
-2.832250000000000045e-01
-2.899289999999999923e-01
-3.045640000000000014e-01
-2.893339999999999801e-01
-2.829380000000000228e-01
-2.907319999999999904e-01
-3.120140000000000136e-01
-3.036929999999999907e-01
-2.923529999999999740e-01
-2.854860000000000175e-01
-2.911920000000000064e-01
-2.963540000000000063e-01
-3.013379999999999947e-01
-3.013919999999999932e-01
-2.797189999999999954e-01
-2.945320000000000160e-01
-3.092349999999999821e-01
-2.919530000000000181e-01
-2.905420000000000225e-01
-2.859979999999999745e-01
-2.885519999999999752e-01
-2.988529999999999798e-01
-2.981389999999999874e-01
-3.018739999999999757e-01
-2.885840000000000072e-01
-2.867450000000000276e-01
-2.850550000000000028e-01
-2.886639999999999762e-01
-3.042489999999999917e-01
-2.956799999999999984e-01
-3.053060000000000218e-01
-2.795380000000000087e-01
-2.856560000000000210e-01
-2.957440000000000069e-01
-2.972540000000000182e-01
-2.762390000000000123e-01
-2.914419999999999789e-01
-3.000229999999999841e-01
-2.894149999999999778e-01
-2.957949999999999746e-01
-3.025639999999999996e-01
-2.958819999999999784e-01
-2.834679999999999978e-01
-3.125439999999999885e-01
-2.931070000000000064e-01
-2.864380000000000259e-01
-2.875110000000000166e-01
-2.915719999999999978e-01
-2.931570000000000009e-01
-2.960180000000000033e-01
-2.831790000000000140e-01
-2.911290000000000266e-01
-2.885119999999999907e-01
-2.923689999999999900e-01
-3.057810000000000250e-01
-3.014530000000000265e-01
-3.074850000000000083e-01
-2.914919999999999733e-01
-2.823220000000000174e-01
-3.004899999999999793e-01
-2.942310000000000203e-01
-2.818479999999999874e-01
-3.130000000000000004e-01
-2.936170000000000169e-01
-3.017859999999999987e-01
-2.856549999999999923e-01
-2.878820000000000268e-01
-2.923160000000000203e-01
-3.134290000000000131e-01
-2.842830000000000079e-01
-2.956429999999999891e-01
-2.778510000000000146e-01
-2.790340000000000042e-01
-2.825239999999999974e-01
-2.791969999999999730e-01
-2.979280000000000261e-01
-2.812749999999999972e-01
-3.050530000000000186e-01
-2.799050000000000149e-01
-2.891369999999999774e-01
-2.890670000000000184e-01
-2.962899999999999978e-01
-3.051679999999999948e-01
-2.911650000000000071e-01
-2.971099999999999852e-01
-2.871739999999999848e-01
-2.907449999999999757e-01
-2.935269999999999824e-01
-2.864530000000000132e-01
-2.979959999999999831e-01
-3.015490000000000115e-01
-2.830779999999999963e-01
-3.171749999999999847e-01
-2.833189999999999875e-01
-2.936710000000000154e-01
-2.862950000000000217e-01
-2.997230000000000172e-01
-2.997059999999999724e-01
-3.128259999999999930e-01
-2.963439999999999963e-01
-2.975209999999999799e-01
-2.786959999999999993e-01
-3.081309999999999882e-01
-2.890309999999999824e-01
-2.872250000000000081e-01
-2.872950000000000226e-01
-2.863069999999999782e-01
-2.946259999999999990e-01
-3.094589999999999841e-01
-3.088279999999999914e-01
-3.003120000000000234e-01
-2.885210000000000274e-01
-3.038139999999999730e-01
-2.904360000000000275e-01
-2.977790000000000159e-01
-2.929629999999999734e-01
-2.861319999999999975e-01
-2.949680000000000080e-01
-2.932370000000000254e-01
-2.840070000000000094e-01
-2.901230000000000198e-01
-2.959649999999999781e-01
-2.797470000000000234e-01
-2.958890000000000131e-01
-2.838510000000000200e-01
-2.919760000000000133e-01
-2.962250000000000161e-01
-2.974120000000000097e-01
-2.948080000000000145e-01
-2.801699999999999746e-01
-2.893830000000000013e-01
-3.011019999999999808e-01
-2.805259999999999976e-01
-3.044529999999999736e-01
-2.910599999999999854e-01
-2.889410000000000034e-01
-2.845759999999999956e-01
-2.972350000000000270e-01
-2.936799999999999966e-01
-3.040539999999999909e-01
-2.824249999999999816e-01
-2.955439999999999734e-01
-2.914660000000000029e-01
-2.816049999999999942e-01
-2.973140000000000227e-01
-3.150680000000000147e-01
-3.108369999999999744e-01
-3.022920000000000051e-01
-2.827979999999999938e-01
-2.914880000000000249e-01
-2.958399999999999919e-01
-3.043379999999999974e-01
-3.043560000000000154e-01
-2.912040000000000184e-01
-2.945539999999999825e-01
-2.897290000000000143e-01
-2.922100000000000253e-01
-2.836139999999999772e-01
-2.889720000000000066e-01
-2.850779999999999981e-01
-2.817089999999999872e-01
-3.012319999999999998e-01
-2.950119999999999965e-01
-2.915909999999999891e-01
-3.041360000000000174e-01
-2.867660000000000209e-01
-2.894360000000000266e-01
-2.916560000000000263e-01
-2.833829999999999960e-01
-2.898580000000000045e-01
-2.900630000000000153e-01
-2.788999999999999813e-01
-2.891889999999999739e-01
-2.981989999999999919e-01
-2.925880000000000147e-01
-2.805110000000000103e-01
-2.895170000000000243e-01
-3.122059999999999835e-01
-3.006940000000000168e-01
-3.015010000000000190e-01
-2.819880000000000164e-01
-2.868439999999999879e-01
-2.849709999999999743e-01
-2.972759999999999847e-01
-2.912350000000000216e-01
-3.036900000000000155e-01
-2.949559999999999960e-01
-2.856850000000000223e-01
-2.871219999999999883e-01
-3.111499999999999821e-01
-2.844400000000000261e-01
-2.890840000000000076e-01
-3.096059999999999923e-01
-2.822020000000000084e-01
-3.009689999999999865e-01
-2.933780000000000276e-01
-2.986829999999999763e-01
-2.804110000000000213e-01
-2.849590000000000178e-01
-2.912890000000000201e-01
-2.894700000000000051e-01
-2.895949999999999913e-01
-2.775279999999999969e-01
-2.918270000000000031e-01
-3.025990000000000069e-01
-2.845030000000000059e-01
-2.954200000000000159e-01
-2.973069999999999879e-01
-2.880610000000000115e-01
-2.943839999999999790e-01
-2.821170000000000067e-01
-2.850550000000000028e-01
-2.989020000000000010e-01
-3.018899999999999917e-01
-2.872589999999999866e-01
-3.131240000000000134e-01
-2.929800000000000182e-01
-2.970140000000000002e-01
-2.893330000000000068e-01
-2.874070000000000236e-01
-2.817339999999999844e-01
-2.839650000000000230e-01
-2.810190000000000188e-01
-2.849570000000000158e-01
-3.026139999999999941e-01
-2.864880000000000204e-01
-2.883390000000000120e-01
-2.898319999999999785e-01
-3.189930000000000265e-01
-3.085300000000000264e-01
-2.867839999999999834e-01
-2.936980000000000146e-01
-2.937429999999999763e-01
-2.958859999999999824e-01
-2.946880000000000055e-01
-2.822810000000000041e-01
-2.995860000000000190e-01
-2.871569999999999956e-01
-2.889650000000000274e-01
-2.859570000000000167e-01
-2.858950000000000102e-01
-2.863629999999999787e-01
-2.819579999999999864e-01
-2.893020000000000036e-01
-2.897950000000000248e-01
-2.900730000000000253e-01
-3.047730000000000161e-01
-2.947020000000000195e-01
-3.052099999999999813e-01
-3.001590000000000091e-01
-2.938819999999999766e-01
-2.853180000000000160e-01
-3.168830000000000258e-01
-2.938930000000000153e-01
-2.944100000000000050e-01
-3.001940000000000164e-01
-2.781989999999999741e-01
-2.850179999999999936e-01
-2.951540000000000274e-01
-3.061690000000000245e-01
-3.041789999999999772e-01
-3.014589999999999770e-01
-2.976690000000000169e-01
-2.841130000000000044e-01
-3.065860000000000252e-01
-3.096260000000000123e-01
-2.904789999999999872e-01
-2.728630000000000222e-01
-2.880599999999999827e-01
-2.955450000000000021e-01
-2.959629999999999761e-01
-3.011630000000000140e-01
-2.834349999999999925e-01
-2.912710000000000021e-01
-2.911020000000000274e-01
-3.071260000000000101e-01
-2.969789999999999930e-01
-3.105010000000000270e-01
-2.987650000000000028e-01
-2.857819999999999805e-01
-3.082779999999999965e-01
-2.864970000000000017e-01
-3.073890000000000233e-01
-3.013540000000000108e-01
-2.871349999999999736e-01
-2.831489999999999840e-01
-2.879050000000000220e-01
-2.908589999999999787e-01
-2.782729999999999926e-01
-2.996710000000000207e-01
-2.905960000000000210e-01
-2.875499999999999723e-01
-3.052139999999999853e-01
-2.889619999999999966e-01
-2.907420000000000004e-01
-2.976130000000000164e-01
-2.857799999999999785e-01
-2.815559999999999730e-01
-2.863740000000000174e-01
-3.035240000000000160e-01
-2.938740000000000241e-01
-2.925510000000000055e-01
-2.983149999999999968e-01
-3.013430000000000275e-01
-2.937339999999999951e-01
-2.957960000000000034e-01
-2.931639999999999802e-01
-2.912420000000000009e-01
-2.966150000000000175e-01
-3.134069999999999911e-01
-2.960450000000000026e-01
-2.899189999999999823e-01
-2.880889999999999840e-01
-2.872480000000000033e-01
-3.068790000000000129e-01
-2.863280000000000269e-01
-2.771839999999999860e-01
-2.875119999999999898e-01
-2.824110000000000231e-01
-2.850969999999999893e-01
-2.948689999999999922e-01
-2.793010000000000215e-01
-2.902129999999999987e-01
-2.997839999999999949e-01
-2.879539999999999877e-01
-2.997049999999999992e-01
-2.857549999999999812e-01
-3.007020000000000248e-01
-2.928200000000000247e-01
-2.822279999999999789e-01
-2.791520000000000112e-01
-2.881329999999999725e-01
-2.924880000000000257e-01
-3.033279999999999865e-01
-2.927609999999999935e-01
-2.929039999999999977e-01
-2.830389999999999850e-01
-2.936989999999999879e-01
-2.846560000000000201e-01
-3.011199999999999988e-01
-3.010720000000000063e-01
-2.918450000000000211e-01
-2.904349999999999987e-01
-2.887649999999999939e-01
-2.906219999999999914e-01
-2.903970000000000162e-01
-2.843010000000000259e-01
-2.888220000000000232e-01
-2.854059999999999930e-01
-2.973049999999999859e-01
-2.855639999999999845e-01
-2.771089999999999942e-01
-2.824579999999999869e-01
-2.899390000000000023e-01
-2.710730000000000084e-01
-2.952509999999999857e-01
-2.782950000000000146e-01
-2.949840000000000240e-01
-2.986369999999999858e-01
-2.911619999999999764e-01
-2.785850000000000271e-01
-3.115220000000000211e-01
-3.080760000000000165e-01
-2.796839999999999882e-01
-2.830539999999999723e-01
-2.901690000000000103e-01
-2.866819999999999924e-01
-2.936460000000000181e-01
-2.900969999999999938e-01
-2.903169999999999917e-01
-2.953419999999999934e-01
-2.851049999999999973e-01
-2.959350000000000036e-01
-2.965570000000000150e-01
-2.933870000000000089e-01
-3.044839999999999769e-01
-2.818860000000000254e-01
-2.853979999999999850e-01
-2.897580000000000156e-01
-2.934089999999999754e-01
-2.876920000000000033e-01
-2.875269999999999770e-01
-2.838089999999999780e-01
-3.087449999999999917e-01
-2.883160000000000167e-01
-2.914959999999999773e-01
-2.955019999999999869e-01
-2.943990000000000218e-01
-2.900070000000000148e-01
-3.029200000000000226e-01
-3.044930000000000136e-01
-3.044270000000000032e-01
-2.936549999999999994e-01
-2.870409999999999906e-01
-2.903530000000000277e-01
-2.912219999999999809e-01
-2.893890000000000073e-01
-2.917279999999999873e-01
-2.957150000000000056e-01
-2.891469999999999874e-01
-3.085709999999999842e-01
-3.072750000000000203e-01
-2.909019999999999939e-01
-2.930719999999999992e-01
-2.860570000000000057e-01
-2.872549999999999826e-01
-2.904079999999999995e-01
-2.934740000000000126e-01
-3.012340000000000018e-01
-2.902239999999999820e-01
-2.788109999999999755e-01
-3.045849999999999946e-01
-2.829670000000000241e-01
-3.048529999999999851e-01
-2.953520000000000034e-01
-2.898419999999999885e-01
-2.771660000000000235e-01
-2.814570000000000127e-01
-2.866569999999999951e-01
-2.868939999999999824e-01
-2.800110000000000099e-01
-2.982199999999999851e-01
-3.111869999999999914e-01
-2.991409999999999902e-01
-2.984559999999999991e-01
-2.896360000000000046e-01
-2.985070000000000223e-01
-2.896380000000000066e-01
-2.931259999999999977e-01
-2.726779999999999760e-01
-2.875759999999999983e-01
-2.970130000000000270e-01
-2.813999999999999835e-01
-2.896949999999999803e-01
-2.849610000000000198e-01
-3.002739999999999854e-01
-2.975940000000000252e-01
-2.973370000000000180e-01
-2.972270000000000190e-01
-3.105580000000000007e-01
-3.023839999999999861e-01
-2.881469999999999865e-01
-2.958729999999999971e-01
-2.841230000000000144e-01
-2.883000000000000007e-01
-2.921190000000000175e-01
-3.043959999999999999e-01
-3.071269999999999833e-01
-2.971429999999999905e-01
-3.047179999999999889e-01
-2.867890000000000161e-01
-2.886210000000000164e-01
-2.832230000000000025e-01
-2.877930000000000210e-01
-3.004530000000000256e-01
-2.849729999999999763e-01
-2.936549999999999994e-01
-3.049700000000000188e-01
-2.928000000000000047e-01
-3.003979999999999984e-01
-2.886199999999999877e-01
-2.839249999999999829e-01
-2.959459999999999869e-01
-2.916679999999999828e-01
-3.012730000000000130e-01
-2.972360000000000002e-01
-2.908259999999999734e-01
-2.779829999999999801e-01
-3.121280000000000165e-01
-2.855969999999999898e-01
-2.915719999999999978e-01
-3.013589999999999880e-01
-2.959240000000000204e-01
-2.953080000000000149e-01
-2.899140000000000050e-01
-3.010700000000000043e-01
-2.907420000000000004e-01
-2.845809999999999729e-01
-2.984780000000000211e-01
-2.833100000000000063e-01
-2.938649999999999873e-01
-2.913109999999999866e-01
-2.927120000000000277e-01
-2.942400000000000015e-01
-2.777839999999999754e-01
-2.807919999999999860e-01
-2.907839999999999869e-01
-2.781129999999999991e-01
-2.828600000000000003e-01
-3.001530000000000031e-01
-3.056670000000000220e-01
-2.945829999999999838e-01
-2.975900000000000212e-01
-2.780619999999999759e-01
-2.973629999999999884e-01
-2.917330000000000201e-01
-3.051780000000000048e-01
-2.906699999999999839e-01
-2.868140000000000134e-01
-2.990889999999999938e-01
-2.903749999999999942e-01
-2.874940000000000273e-01
-2.943330000000000113e-01
-2.852040000000000131e-01
-2.842109999999999914e-01
-2.948250000000000037e-01
-2.855369999999999853e-01
-2.994569999999999732e-01
-2.946139999999999870e-01
-2.858289999999999997e-01
-2.847819999999999796e-01
-2.846020000000000216e-01
-2.830130000000000146e-01
-2.925209999999999755e-01
-3.068899999999999961e-01
-2.966900000000000093e-01
-2.821629999999999971e-01
-3.008460000000000023e-01
-3.103119999999999767e-01
-3.061710000000000265e-01
-3.091369999999999951e-01
-2.933450000000000224e-01
-2.928459999999999952e-01
-2.944959999999999800e-01
-2.895380000000000176e-01
-2.751199999999999757e-01
-2.906889999999999752e-01
-2.781819999999999848e-01
-2.832620000000000138e-01
-2.899939999999999740e-01
-2.894289999999999918e-01
-2.980789999999999829e-01
-2.979350000000000054e-01
-2.960900000000000198e-01
-3.059700000000000197e-01
-2.789389999999999925e-01
-3.028989999999999738e-01
-2.877330000000000165e-01
-2.884639999999999982e-01
-2.982730000000000103e-01
-2.782350000000000101e-01
-2.897000000000000131e-01
-2.957449999999999801e-01
-2.943029999999999813e-01
-2.914479999999999849e-01
-2.858490000000000197e-01
-3.003109999999999946e-01
-2.965030000000000165e-01
-2.976849999999999774e-01
-2.837999999999999967e-01
-2.888270000000000004e-01
-2.859789999999999832e-01
-2.809599999999999875e-01
-2.949879999999999725e-01
-2.961289999999999756e-01
-2.883080000000000087e-01
-2.905519999999999770e-01
-2.952509999999999857e-01
-2.934370000000000034e-01
-2.972049999999999970e-01
-2.876969999999999805e-01
-2.800219999999999931e-01
-2.934729999999999839e-01
-2.942460000000000075e-01
-3.044629999999999836e-01
-2.968180000000000263e-01
-2.856639999999999735e-01
-2.952310000000000212e-01
-2.862439999999999984e-01
-2.797879999999999812e-01
-2.831359999999999988e-01
-2.822259999999999769e-01
-2.941889999999999783e-01
-3.008669999999999956e-01
-2.886560000000000237e-01
-3.006820000000000048e-01
-2.844459999999999766e-01
-2.965180000000000038e-01
-2.943500000000000005e-01
-2.819860000000000144e-01
-3.104879999999999862e-01
-2.922750000000000070e-01
-2.959919999999999773e-01
-2.846609999999999974e-01
-3.024100000000000121e-01
-2.820469999999999922e-01
-2.908740000000000214e-01
-2.901659999999999795e-01
-2.920849999999999835e-01
-2.949849999999999972e-01
-2.896349999999999758e-01
-3.088150000000000062e-01
-3.173309999999999742e-01
-2.997159999999999824e-01
-2.875969999999999915e-01
-2.925130000000000230e-01
-2.835369999999999835e-01
-2.956349999999999811e-01
-3.025780000000000136e-01
-2.974470000000000169e-01
-2.919550000000000201e-01
-3.087630000000000097e-01
-3.059370000000000145e-01
-2.845159999999999911e-01
