5.011520385742187500e-01,-3.494900763034820557e-01,-5.861290544271469116e-02,1.139667630195617676e-02,1.475328207015991211e-01,-2.779559791088104248e-01,2.784847840666770935e-02,-1.972794532775878906e-02,-1.474836841225624084e-02,1.434413157403469086e-02,2.248573537818921581e-03,7.034421693359695950e-04
1.796481013298034668e+00,-8.040217161178588867e-01,-4.787369370460510254e-01,-3.420587182044982910e-01,9.732043743133544922e-01,-9.777746796607971191e-01,4.042719304561614990e-02,1.465106010437011719e-02,9.482434950768947601e-03,1.487601175904273987e-02,4.592196436683618731e-03,6.503739107811372106e-05
-1.735582202672958374e-01,1.016612648963928223e-01,1.346248760819435120e-02,-2.048443630337715149e-02,-3.758713975548744202e-02,3.518387675285339355e-02,2.435854449868202209e-02,2.695053815841674805e-03,7.936006411910057068e-03,1.427181065082550049e-02,1.717976453121407331e-03,7.279456091010664837e-04
2.087698131799697876e-01,-1.571186184883117676e-01,-1.956612803041934967e-02,9.066149592399597168e-03,5.631130561232566833e-02,-1.363649368286132812e-01,2.613904140889644623e-02,-7.337957620620727539e-03,-8.489390835165977478e-03,1.428008638322353363e-02,1.749394338012035715e-03,8.107257525665059533e-04
3.374858200550079346e-02,-4.108890891075134277e-02,6.899386644363403320e-04,3.979146480560302734e-03,7.186914794147014618e-03,-5.231216549873352051e-02,2.521103993058204651e-02,-2.823948860168457031e-03,-1.036066561937332153e-03,1.426303107291460037e-02,1.608228592280653083e-03,8.027713234188307541e-04
-4.920428991317749023e-02,1.495784521102905273e-02,7.325578480958938599e-03,-3.715299069881439209e-03,-1.310294587165117264e-02,-1.669752597808837891e-02,2.485144883394241333e-02,4.289060831069946289e-03,2.717217896133661270e-03,1.425997074693441391e-02,1.594387165422689280e-03,7.755590736691274313e-04
1.734330952167510986e-01,-1.334631145000457764e-01,-1.433235406875610352e-02,1.095390319824218750e-02,4.640461131930351257e-02,-1.156199723482131958e-01,2.589344605803489685e-02,-7.376939058303833008e-03,-7.105303928256034851e-03,1.427599042654037476e-02,1.712907923614609331e-03,8.164730832524512254e-04
-3.182949125766754150e-02,2.760887145996093750e-03,4.573598504066467285e-03,-6.139002740383148193e-03,-9.588120505213737488e-03,-2.992621064186096191e-02,2.500287815928459167e-02,3.218054771423339844e-03,1.914059743285179138e-03,1.426019240170717239e-02,1.594305591089704164e-03,7.797811954095904257e-04
1.275727003812789917e-01,-1.029735058546066284e-01,-8.507262915372848511e-03,1.087372004985809326e-02,3.345697745680809021e-02,-9.203636646270751953e-02,2.562659233808517456e-02,-1.009196043014526367e-02,-5.192963406443595886e-03,1.427113544195890427e-02,1.671121520877360146e-03,8.181871555324313943e-04
2.390973269939422607e-02,-3.469824790954589844e-02,8.356496691703796387e-04,1.118130981922149658e-03,4.370519891381263733e-03,-5.092722177505493164e-02,2.520614676177501678e-02,-6.129443645477294922e-04,-6.009805947542190552e-04,1.426244620233774185e-02,1.604928757233710455e-03,7.989669475026750815e-04
-2.586110830307006836e-01,1.629873216152191162e-01,1.506160572171211243e-02,-3.532436862587928772e-02,-5.001943930983543396e-02,7.015299797058105469e-02,2.404511906206607819e-02,1.460304856300354004e-02,1.093049906194210052e-02,1.429769676178693771e-02,1.929348903483725768e-03,7.060815227962548594e-04
3.129429221153259277e-01,-2.267856746912002563e-01,-3.524736315011978149e-02,3.559216856956481934e-03,8.638066798448562622e-02,-1.968144774436950684e-01,2.687475644052028656e-02,-3.444939851760864258e-03,-1.189614459872245789e-02,1.429465971887111664e-02,1.877901694557313535e-03,7.794805117484630884e-04
-3.526876568794250488e-01,2.336707413196563721e-01,1.695792004466056824e-02,-4.853075370192527771e-02,-5.966124683618545532e-02,1.165178120136260986e-01,2.361502312123775482e-02,1.634904742240905762e-02,1.353684160858392715e-02,1.434690412133932114e-02,2.266227978746506583e-03,7.033255544150678702e-04
7.703529596328735352e-01,-4.997952580451965332e-01,-1.165367364883422852e-01,-2.692642807960510254e-02,2.571806907653808594e-01,-4.353847801685333252e-01,3.007791936397552490e-02,-1.161393523216247559e-02,-1.136110536754131317e-02,1.451290026307106018e-02,3.172656304875241199e-03,5.960846888672585719e-04
-1.214597076177597046e-01,6.498563289642333984e-02,1.169942691922187805e-02,-1.202935725450515747e-02,-2.816095948219299316e-02,1.454153656959533691e-02,2.454699203372001648e-02,8.350610733032226562e-04,5.849454086273908615e-03,1.426366996020078659e-02,1.640231662421460157e-03,7.474681402585055950e-04
2.488823682069778442e-01,-1.836794167757034302e-01,-2.404680661857128143e-02,1.117536425590515137e-02,6.820875406265258789e-02,-1.539654731750488281e-01,2.633626572787761688e-02,-8.898943662643432617e-03,-9.916840121150016785e-03,1.428491994738578796e-02,1.791803039961345229e-03,8.032356252509203912e-04
2.126868665218353271e-01,-1.593053340911865234e-01,-1.813299208879470825e-02,1.452115178108215332e-02,5.807408317923545837e-02,-1.308672279119491577e-01,2.605518698692321777e-02,-5.126953125000000000e-03,-8.613564074039459229e-03,1.428031269460916519e-02,1.750152694883604261e-03,8.130706275862508098e-04
-8.512084186077117920e-02,3.938144445419311523e-02,8.198302239179611206e-03,-1.173514127731323242e-02,-2.133183926343917847e-02,-6.749272346496582031e-03,2.477256394922733307e-02,8.653044700622558594e-03,4.277240019291639328e-03,1.426092628389596939e-02,1.610519601889708573e-03,7.596093007981982639e-04
-2.440092414617538452e-01,1.521759331226348877e-01,1.387056335806846619e-02,-3.546158596873283386e-02,-4.835378751158714294e-02,6.035643815994262695e-02,2.414657920598983765e-02,5.790054798126220703e-03,1.044417638331651688e-02,1.429203245788812637e-02,1.886359119298891508e-03,7.075622769296194400e-04
-1.725140213966369629e-02,-7.485717535018920898e-03,1.756671816110610962e-03,-9.503699839115142822e-03,-6.678130477666854858e-03,-4.273587465286254883e-02,2.515432052314281464e-02,8.728057146072387695e-03,1.229361630976200104e-03,1.426068972796201706e-02,1.597415013065057315e-03,7.825005278932589377e-04
1.097555756568908691e-01,-9.182409942150115967e-02,-9.081982076168060303e-03,2.888701856136322021e-03,2.750197239220142365e-02,-9.382881224155426025e-02,2.567619085311889648e-02,-4.386961460113525391e-03,-4.460388794541358948e-03,1.426963694393634796e-02,1.660793634381821848e-03,8.130563654068545575e-04
8.300764113664627075e-02,-7.401490211486816406e-02,-5.360756069421768188e-03,3.890432417392730713e-03,2.021568454802036285e-02,-7.854780554771423340e-02,2.550137788057327271e-02,-3.086954355239868164e-03,-3.271336667239665985e-03,1.426704972982406616e-02,1.639362543800031592e-03,8.111612553600497507e-04
1.420058131217956543e+00,-7.349066734313964844e-01,-3.217247128486633301e-01,-1.981727182865142822e-01,6.598962545394897461e-01,-7.886734008789062500e-01,3.626395761966705322e-02,-4.739463329315185547e-04,5.949570797383785248e-03,1.485719997435808182e-02,4.525225933597951458e-03,2.356331432865388690e-04
-1.071270257234573364e-01,5.489113926887512207e-02,1.054994016885757446e-02,-1.133542507886886597e-02,-2.548483386635780334e-02,6.862282752990722656e-03,2.462599985301494598e-02,-3.989338874816894531e-04,5.239826161414384842e-03,1.426232047379016876e-02,1.626132446232745601e-03,7.524865803459439544e-04
-4.618482291698455811e-02,1.261886954307556152e-02,5.880527198314666748e-03,-6.840869784355163574e-03,-1.280286163091659546e-02,-2.270454168319702148e-02,2.492715604603290558e-02,5.953043699264526367e-03,2.562583424150943756e-03,1.426003780215978622e-02,1.595304161664947134e-03,7.749001052651308379e-04
-2.684090733528137207e-01,1.702667176723480225e-01,1.573229953646659851e-02,-3.554588928818702698e-02,-5.111279711127281189e-02,7.635450363159179688e-02,2.398217096924781799e-02,1.355004310607910156e-02,1.124489493668079376e-02,1.430180203169584274e-02,1.959829724693536255e-03,7.052510230672255935e-04
-6.618826091289520264e-02,2.625596523284912109e-02,6.764188408851623535e-03,-1.028866320848464966e-02,-1.738096214830875397e-02,-1.586163043975830078e-02,2.486540004611015320e-02,1.816064119338989258e-03,3.444103058427572250e-03,1.426027156412601471e-02,1.601368270667021931e-03,7.666351171993669592e-04
-3.165057301521301270e-02,3.177940845489501953e-03,6.889626383781433105e-03,3.877058625221252441e-04,-8.806524798274040222e-03,-2.107661962509155273e-02,2.488420158624649048e-02,-1.259952783584594727e-03,1.943570561707019806e-03,1.426006387919187546e-02,1.591427281466739315e-03,7.833035144406101788e-04
-7.585428655147552490e-02,3.294566273689270020e-02,7.497131824493408203e-03,-1.104337722063064575e-02,-1.942204497754573822e-02,-1.125052571296691895e-02,2.481844648718833923e-02,9.160637855529785156e-04,3.870933316648006439e-03,1.426054444164037704e-02,1.605507808441355901e-03,7.630471064195065494e-04
-2.763813734054565430e-02,-7.553696632385253906e-04,5.070865154266357422e-04,-1.619301736354827881e-02,-9.752103127539157867e-03,-4.596540331840515137e-02,2.521338872611522675e-02,2.801060676574707031e-03,1.668302342295646667e-03,1.426061894744634628e-02,1.599851129509124352e-03,7.762118438123800620e-04
2.310221195220947266e-01,-1.721213757991790771e-01,-2.353029511868953705e-02,6.072282791137695312e-03,6.242487952113151550e-02,-1.518386006355285645e-01,2.633041888475418091e-02,-7.750958204269409180e-03,-9.314190596342086792e-03,1.428292132914066315e-02,1.775101752308467324e-03,8.047737468818734604e-04
-1.039293557405471802e-01,5.229502916336059570e-02,8.416164666414260864e-03,-1.636740565299987793e-02,-2.540543116629123688e-02,-1.871943473815917969e-03,2.473635599017143250e-02,2.430051565170288086e-03,5.073590204119682312e-03,1.426215097308158875e-02,1.625288244491094160e-03,7.511018903571724335e-04
7.954829335212707520e-01,-5.121323466300964355e-01,-1.230095177888870239e-01,-3.221266344189643860e-02,2.690621614456176758e-01,-4.507014155387878418e-01,3.031207993626594543e-02,-1.610395312309265137e-02,-1.071104221045970917e-02,1.453308388590812683e-02,3.265418878004198392e-03,5.867949379524407252e-04
-9.384350478649139404e-02,4.575300216674804688e-02,1.028532907366752625e-02,-8.395753800868988037e-03,-2.267134375870227814e-02,2.951562404632568359e-03,2.465746551752090454e-02,7.512062788009643555e-03,4.679316189140081406e-03,1.426134258508682251e-02,1.614788883370153749e-03,7.583780575985729199e-04
1.875933647155761719e+00,-8.124455213546752930e-01,-5.192431211471557617e-01,-3.879817128181457520e-01,1.044882297515869141e+00,-1.032103061676025391e+00,4.176141321659088135e-02,1.510205864906311035e-02,9.763862006366252899e-03,1.487646903842687607e-02,4.593914218416086589e-03,4.555359067835312869e-05
1.482305645942687988e+00,-7.480083703994750977e-01,-3.496973216533660889e-01,-2.300384044647216797e-01,7.077762484550476074e-01,-8.333010673522949219e-01,3.720327839255332947e-02,3.908067941665649414e-03,6.893383339047431946e-03,1.486439537256956100e-02,4.550581692215715894e-03,1.981334779485606880e-04
-3.851301968097686768e-02,7.547795772552490234e-03,6.117839366197586060e-03,-3.864452242851257324e-03,-1.080629322677850723e-02,-2.301612496376037598e-02,2.492007240653038025e-02,1.171052455902099609e-03,2.231356687843799591e-03,1.426003593951463699e-02,1.593341214457185372e-03,7.788802923031827672e-04
1.479032039642333984e+00,-7.482137680053710938e-01,-3.453439772129058838e-01,-2.205754965543746948e-01,7.055291533470153809e-01,-8.211336135864257812e-01,3.693439811468124390e-02,5.988061428070068359e-03,6.836324930191040039e-03,1.486400235444307327e-02,4.549195028577742404e-03,2.004259336574968622e-04
-8.295528590679168701e-02,3.802499175071716309e-02,8.784208446741104126e-03,-9.495034813880920410e-03,-2.066961303353309631e-02,-4.976987838745117188e-03,2.474584802985191345e-02,5.880594253540039062e-04,4.194300156086683273e-03,1.426078937947750092e-02,1.608436692297684220e-03,7.614498199080636234e-04
2.096098512411117554e-01,-1.572117060422897339e-01,-1.755222678184509277e-02,1.503183692693710327e-02,5.724702402949333191e-02,-1.285848617553710938e-01,2.602697536349296570e-02,-9.995937347412109375e-03,-8.496269583702087402e-03,1.427993271499872208e-02,1.746646114082368905e-03,8.139171711436595132e-04
-2.923089861869812012e-01,1.878819167613983154e-01,1.500540599226951599e-02,-4.238306730985641479e-02,-5.410860106348991394e-02,8.327358961105346680e-02,2.393314428627490997e-02,8.269041776657104492e-03,1.194713544100522995e-02,1.431277301162481308e-02,2.039528347918970631e-03,7.018146007307139115e-04
-1.414452344179153442e-01,7.834076881408691406e-02,8.443471044301986694e-03,-2.624836936593055725e-02,-3.300458937883377075e-02,7.530212402343750000e-03,2.466982603073120117e-02,7.752060890197753906e-03,6.609871983528137207e-03,1.426634192466735840e-02,1.669027053193993058e-03,7.345962735508039824e-04
1.903659939765930176e+00,-8.155980110168457031e-01,-5.321676135063171387e-01,-4.004428982734680176e-01,1.070410728454589844e+00,-1.046258091926574707e+00,4.211612045764923096e-02,1.127403974533081055e-02,9.838175028562545776e-03,1.487656030803918839e-02,4.594260073249388510e-03,4.002590725815563700e-05
-7.171179354190826416e-02,2.939987182617187500e-02,2.845142036676406860e-03,-2.275855839252471924e-02,-1.979666389524936676e-02,-2.950355410575866699e-02,2.505649253726005554e-02,2.487063407897949219e-03,3.623507451266050339e-03,1.426077168434858322e-02,1.609429885863794324e-03,7.590290154773588014e-04
1.573125243186950684e+00,-7.668358683586120605e-01,-3.855203688144683838e-01,-2.610089778900146484e-01,7.809954285621643066e-01,-8.763523101806640625e-01,3.812200203537940979e-02,1.435506343841552734e-02,7.961072959005832672e-03,1.487070322036743164e-02,4.572975845584943168e-03,1.499727958730559421e-04
-2.451910823583602905e-01,1.533330678939819336e-01,1.606200262904167175e-02,-2.973980456590652466e-02,-4.801132902503013611e-02,6.876438856124877930e-02,2.404127269983291626e-02,1.251906156539916992e-02,1.051201857626438141e-02,1.429249253123998642e-02,1.889012414360322989e-03,7.097614183091541847e-04
6.948754191398620605e-02,-6.507250666618347168e-02,-3.820680081844329834e-03,3.483369946479797363e-03,1.647588610649108887e-02,-7.203921675682067871e-02,2.543050423264503479e-02,-3.732949495315551758e-03,-2.665976062417030334e-03,1.426586043089628220e-02,1.630005455888315939e-03,8.091021039217952343e-04
4.927769303321838379e-02,-5.184808373451232910e-02,-2.507820725440979004e-03,2.178326249122619629e-04,1.071817986667156219e-02,-6.583708524703979492e-02,2.537366747856140137e-02,-5.994945764541625977e-03,-1.766813918948173523e-03,1.426429580897092819e-02,1.618850845612044816e-03,8.038938876124482455e-04
-3.143638372421264648e-01,2.043704092502593994e-01,1.460218802094459534e-02,-4.779103770852088928e-02,-5.656198784708976746e-02,9.107756614685058594e-02,2.387045323848724365e-02,9.170055389404296875e-03,1.255422644317150116e-02,1.432416215538978577e-02,2.118480114272972004e-03,7.003374807828001685e-04
-1.753237098455429077e-01,1.030470430850982666e-01,1.423588767647743225e-02,-1.878914237022399902e-02,-3.769455105066299438e-02,3.857839107513427734e-02,2.431739307940006256e-02,3.087043762207031250e-03,8.014411665499210358e-03,1.427217666059732437e-02,1.720881983830758891e-03,7.282759221750522653e-04
1.454642534255981445e+00,-7.439255714416503906e-01,-3.318423330783843994e-01,-2.013037502765655518e-01,6.868987083435058594e-01,-7.951813936233520508e-01,3.638057038187980652e-02,-1.376956701278686523e-03,6.472093984484672546e-03,1.486136391758918762e-02,4.539892835912565094e-03,2.151846964929473736e-04
-2.185292989015579224e-01,1.339368224143981934e-01,1.516619697213172913e-02,-2.632972225546836853e-02,-4.442777857184410095e-02,5.596381425857543945e-02,2.416199073195457458e-02,9.357064962387084961e-03,9.599384851753711700e-03,1.428339816629886627e-02,1.816781361619671008e-03,7.152346369492021795e-04
1.323408484458923340e-01,-1.062877029180526733e-01,-9.686652570962905884e-03,9.253129363059997559e-03,3.459170088171958923e-02,-9.675000607967376709e-02,2.568563260138034821e-02,-2.322942018508911133e-03,-5.405621603131294250e-03,1.427167747169733047e-02,1.676181841825426753e-03,8.173108865064336028e-04
-4.776325821876525879e-02,1.375377178192138672e-02,6.249152123928070068e-03,-6.286002695560455322e-03,-1.308040972799062729e-02,-2.104184031486511230e-02,2.490726485848426819e-02,2.520680427551269531e-04,2.637216821312904358e-03,1.426002103835344315e-02,1.595271665212385712e-03,7.746787591966780703e-04
1.299395561218261719e-01,-1.044024974107742310e-01,-8.261010050773620605e-03,1.241684705018997192e-02,3.431116044521331787e-02,-9.112325310707092285e-02,2.561064995825290680e-02,-2.652943134307861328e-03,-5.286667495965957642e-03,1.427132822573184967e-02,1.672318424890206680e-03,8.191155421196742725e-04
-1.460240036249160767e-01,8.228936791419982910e-02,1.306863501667976379e-02,-1.468068361282348633e-02,-3.265373036265373230e-02,2.592590451240539551e-02,2.443601191043853760e-02,6.371051073074340820e-03,6.860769353806972504e-03,1.426684856414794922e-02,1.671640647217709826e-03,7.385001536610921041e-04
8.982987701892852783e-02,-7.854618132114410400e-02,-6.258301436901092529e-03,3.773331642150878906e-03,2.208334393799304962e-02,-8.226016163825988770e-02,2.554321661591529846e-02,-3.266960382461547852e-03,-3.576366230845451355e-03,1.426768396049737930e-02,1.644533312553020680e-03,8.118733064623758324e-04
1.243396699428558350e-01,-1.007603108882904053e-01,-7.855433970689773560e-03,1.155731081962585449e-02,3.263892233371734619e-02,-8.941192924976348877e-02,2.559461444616317749e-02,1.494050025939941406e-03,-5.050112493336200714e-03,1.427078712731599808e-02,1.667984831032298058e-03,8.185186917564536181e-04
-3.097550570964813232e-02,2.605468034744262695e-03,6.387352943420410156e-03,-8.097514510154724121e-04,-8.794326335191726685e-03,-2.310630679130554199e-02,2.491030842065811157e-02,1.877039670944213867e-03,1.905728131532669067e-03,1.426009554415941238e-02,1.591932975290968324e-03,7.828561086883808464e-04
-2.954700589179992676e-01,1.903099715709686279e-01,1.570250466465950012e-02,-4.111822694540023804e-02,-5.431494116783142090e-02,8.708080649375915527e-02,2.389023266732692719e-02,1.276805996894836426e-02,1.204590871930122375e-02,1.431434787809848785e-02,2.050407764507983146e-03,7.022703326817440880e-04
9.743785858154296875e-01,-5.924046039581298828e-01,-1.700264215469360352e-01,-6.612615287303924561e-02,3.628844022750854492e-01,-5.468602776527404785e-01,3.182826936244964600e-02,-3.284960985183715820e-03,-5.394179373979568481e-03,1.467369217425584793e-02,3.853897621131761701e-03,5.113822312595093763e-04
1.208993867039680481e-01,-1.003437787294387817e-01,-1.800945028662681580e-02,-1.823531091213226318e-02,2.816669270396232605e-02,-1.283694505691528320e-01,2.614807896316051483e-02,-7.528960704803466797e-03,-5.038047209382057190e-03,1.427195407450199127e-02,1.685184884091971884e-03,8.035064796795576315e-04
-6.250737607479095459e-02,2.362135052680969238e-02,5.993224680423736572e-03,-1.135893166065216064e-02,-1.673682592809200287e-02,-1.945340633392333984e-02,2.490784786641597748e-02,9.744048118591308594e-03,3.273203969001770020e-03,1.426023151725530624e-02,1.600689428328259771e-03,7.673247785597084574e-04
-2.606402635574340820e-01,1.646273136138916016e-01,1.620392873883247375e-02,-3.263920173048973083e-02,-5.002283304929733276e-02,7.507479190826416016e-02,2.398592047393321991e-02,9.531050920486450195e-03,1.100934576243162155e-02,1.429854799062013626e-02,1.935307153459972637e-03,7.069918552593787474e-04
-1.802200525999069214e-01,1.062008440494537354e-01,1.243318989872932434e-02,-2.492351457476615906e-02,-3.899761289358139038e-02,3.340119123458862305e-02,2.439210005104541779e-02,8.603066205978393555e-03,8.172789588570594788e-03,1.427326351404190063e-02,1.731575297585310081e-03,7.242156151794126775e-04
-3.352041244506835938e-01,2.201928198337554932e-01,1.527084782719612122e-02,-4.990753158926963806e-02,-5.845154449343681335e-02,1.025824248790740967e-01,2.376001700758934021e-02,1.121705770492553711e-02,1.309915166348218918e-02,1.433605328202247620e-02,2.197218437482863652e-03,7.010285502861710386e-04
1.538935899734497070e-01,-1.208302676677703857e-01,-1.341120153665542603e-02,6.497517228126525879e-03,4.032851010560989380e-02,-1.116889119148254395e-01,2.586511150002479553e-02,-5.372941493988037109e-03,-6.326904520392417908e-03,1.427404768764972687e-02,1.697185565019982767e-03,8.153473761237342750e-04
-7.733200490474700928e-02,3.404772281646728516e-02,8.001387119293212891e-03,-1.006604731082916260e-02,-1.961408555507659912e-02,-9.055703878402709961e-03,2.479150146245956421e-02,4.626065492630004883e-03,3.942055162042379379e-03,1.426057610660791397e-02,1.605798388506534963e-03,7.630398803417307984e-04
-1.901230067014694214e-01,1.135919690132141113e-01,1.467764005064964294e-02,-2.112802118062973022e-02,-4.009226337075233459e-02,4.476308822631835938e-02,2.426081337034702301e-02,8.381038904190063477e-03,8.573926053941249847e-03,1.427555177360773087e-02,1.750627085570704644e-03,7.235056423897839916e-04
-1.424325853586196899e-01,7.965075969696044922e-02,1.236717030405998230e-02,-1.569201052188873291e-02,-3.215485811233520508e-02,2.234938740730285645e-02,2.447706088423728943e-02,3.799051046371459961e-03,6.707275286316871643e-03,1.426632236689329147e-02,1.666875937523976375e-03,7.390925191889547450e-04
9.398143738508224487e-02,-8.140984177589416504e-02,-7.268127053976058960e-03,2.395674586296081543e-03,2.306085638701915741e-02,-8.631950616836547852e-02,2.559368126094341278e-02,-4.946947097778320312e-03,-3.767959773540496826e-03,1.426812633872032166e-02,1.648510951978040401e-03,8.115488615154275087e-04
-1.629031151533126831e-01,9.428408741950988770e-02,1.407095417380332947e-02,-1.618488132953643799e-02,-3.552953153848648071e-02,3.433409333229064941e-02,2.435296960175037384e-02,6.244063377380371094e-03,7.536829449236392975e-03,1.426970306783914566e-02,1.698271454636503686e-03,7.328754438728563502e-04
-2.338681071996688843e-01,1.450872123241424561e-01,1.581293717026710510e-02,-2.796058356761932373e-02,-4.649851098656654358e-02,6.373789906501770020e-02,2.408716082572937012e-02,4.005044698715209961e-03,1.013316307216882706e-02,1.428842265158891678e-02,1.857104862392431385e-03,7.120253011749058973e-04
1.959908157587051392e-01,-1.490011066198348999e-01,-1.992196775972843170e-02,3.419250249862670898e-03,5.198444426059722900e-02,-1.375506818294525146e-01,2.617381513118743896e-02,-1.118195056915283203e-02,-8.025947958230972290e-03,1.427887752652168274e-02,1.739958339350395223e-03,8.097427509695847084e-04
6.896345317363739014e-02,-6.490430235862731934e-02,-4.522148519754409790e-03,1.321382820606231689e-03,1.606712490320205688e-02,-7.474714517593383789e-02,2.546849474310874939e-02,-2.489954233169555664e-03,-2.653913572430610657e-03,1.426588837057352066e-02,1.630881234053921901e-03,8.078511258335372217e-04
3.722170889377593994e-01,-2.663728296756744385e-01,-4.389336332678794861e-02,1.687526702880859375e-03,1.041688621044158936e-01,-2.291208505630493164e-01,2.727647870779037476e-02,-1.201295852661132812e-02,-1.328728534281253815e-02,1.430601067841053009e-02,1.971814765714872270e-03,7.554333217783565802e-04
-1.117586046457290649e-01,5.778974294662475586e-02,9.018108248710632324e-03,-1.683487743139266968e-02,-2.689729817211627960e-02,2.183943986892700195e-03,2.469465881586074829e-02,6.686061620712280273e-03,5.408578552305698395e-03,1.426279451698064804e-02,1.632225781572695404e-03,7.482945907404884699e-04
5.748364329338073730e-02,-5.707263946533203125e-02,-2.371851354837417603e-03,3.409571945667266846e-03,1.326102018356323242e-02,-6.580257415771484375e-02,2.536167949438095093e-02,-2.180933952331542969e-03,-2.122773788869380951e-03,1.426485087722539902e-02,1.622134133895707141e-03,8.071166871850463630e-04
-1.159583777189254761e-01,6.104478240013122559e-02,1.096343994140625000e-02,-1.258866488933563232e-02,-2.723046019673347473e-02,1.046198606491088867e-02,2.459209226071834564e-02,1.636058092117309570e-03,5.612007342278957367e-03,1.426311861723661423e-02,1.634744662047329542e-03,7.489702130348856917e-04
-2.112466096878051758e-02,-3.825008869171142578e-03,6.658386439085006714e-03,2.998784184455871582e-03,-6.132357288151979446e-03,-2.342066168785095215e-02,2.490025945007801056e-02,7.630586624145507812e-04,1.477955840528011322e-03,1.426026877015829086e-02,1.590974020403728827e-03,7.879360351704557805e-04
1.193059921264648438e+00,-6.721794009208679199e-01,-2.380783408880233765e-01,-1.216850802302360535e-01,4.976785182952880859e-01,-6.638515591621398926e-01,3.385411575436592102e-02,2.404063940048217773e-03,1.078575849533081055e-03,1.479873247444629669e-02,4.318783821528575720e-03,3.838946893902519912e-04
-1.525739282369613647e-01,8.646130561828613281e-02,1.076182723045349121e-02,-2.270238846540451050e-02,-3.450339660048484802e-02,1.913720369338989258e-02,2.453469298779964447e-02,6.282061338424682617e-03,7.084871642291545868e-03,1.426795311272144318e-02,1.683537993598973638e-03,7.327974509484234435e-04
9.190750718116760254e-01,-5.693849921226501465e-01,-1.523131877183914185e-01,-4.807674139738082886e-02,3.327620029449462891e-01,-5.087975263595581055e-01,3.119472227990627289e-02,-7.093936204910278320e-03,-7.141726091504096985e-03,1.463148184120655060e-02,3.686156643452683391e-03,5.378773343244285746e-04
-4.535548388957977295e-02,1.239398121833801270e-02,7.348615676164627075e-03,-2.496354281902313232e-03,-1.213922351598739624e-02,-1.723280549049377441e-02,2.485294267535209656e-02,2.279043197631835938e-03,2.550001721829175949e-03,1.425995770841836929e-02,1.593342356076278251e-03,7.774418232445931814e-04
-9.029148519039154053e-02,4.316854476928710938e-02,9.517204016447067261e-03,-9.532168507575988770e-03,-2.210696041584014893e-02,-7.004439830780029297e-04,2.470029890537261963e-02,3.470063209533691406e-03,4.517160821706056595e-03,1.426115166395902634e-02,1.612814688045469949e-03,7.589824326843578033e-04
1.237085700035095215e+00,-6.861184835433959961e-01,-2.522853314876556396e-01,-1.323160678148269653e-01,5.275597572326660156e-01,-6.842824816703796387e-01,3.422463685274124146e-02,-6.269514560699462891e-04,2.194717526435852051e-03,1.481506321579217911e-02,4.376848975775131725e-03,3.550880966686432907e-04
-2.610318064689636230e-01,1.648516654968261719e-01,1.575500145554542542e-02,-3.394452109932899475e-02,-5.017485097050666809e-02,7.359278202056884766e-02,2.400532737374305725e-02,1.249706745147705078e-02,1.101578772068023682e-02,1.429869886487722397e-02,1.936631015545432636e-03,7.064290196163668621e-04
-1.934753507375717163e-01,1.158581674098968506e-01,1.402126625180244446e-02,-2.371829375624656677e-02,-4.080752655863761902e-02,4.340651631355285645e-02,2.428356930613517761e-02,5.000054836273193359e-03,8.687649853527545929e-03,1.427638344466686249e-02,1.758196307872062544e-03,7.215441990447969906e-04
6.154817342758178711e-02,-5.967113375663757324e-02,-2.401892095804214478e-03,4.727855324745178223e-03,1.450280379503965378e-02,-6.613290309906005859e-02,2.536053769290447235e-02,-3.216952085494995117e-03,-2.299985848367214203e-03,1.426514610648155212e-02,1.624028119378959642e-03,8.085359320438332631e-04
1.836319446563720703e+00,-8.086298704147338867e-01,-4.983536303043365479e-01,-3.633831143379211426e-01,1.008956909179687500e+00,-1.003079175949096680e+00,4.104081541299819946e-02,9.488046169281005859e-03,9.636173024773597717e-03,1.487628370523452759e-02,4.593213520256415709e-03,5.463592795889788182e-05
-1.830476373434066772e-01,1.083533167839050293e-01,1.338030770421028137e-02,-2.300318330526351929e-02,-3.923840820789337158e-02,3.776296973228454590e-02,2.434003166854381561e-02,7.861047983169555664e-03,8.292414247989654541e-03,1.427388470619916916e-02,1.736627575541748727e-03,7.243628075307580703e-04
3.126591444015502930e-03,-2.130722999572753906e-02,-7.962062954902648926e-05,-8.203215897083282471e-03,-1.774714095517992973e-03,-5.230787396430969238e-02,2.525470405817031860e-02,1.180052757263183594e-03,3.020092844963073730e-04,1.426153164356946945e-02,1.601793607604407987e-03,7.888931772643942818e-04
3.225136995315551758e-01,-2.330861985683441162e-01,-3.590246289968490601e-02,5.299508571624755859e-03,8.943618834018707275e-02,-1.992827951908111572e-01,2.689802646636962891e-02,-1.739794015884399414e-02,-1.214532740414142609e-02,1.429614890366792679e-02,1.890297971829914270e-03,7.768197229570416619e-04
-1.136359721422195435e-01,5.953615903854370117e-02,1.139575242996215820e-02,-1.076458394527435303e-02,-2.662151120603084564e-02,1.154342293739318848e-02,2.457439154386520386e-02,6.186068058013916016e-03,5.522955674678087234e-03,1.426288112998008728e-02,1.631899780387730155e-03,7.506385099130099062e-04
4.069082438945770264e-02,-4.554122686386108398e-02,7.057860493659973145e-04,6.359115242958068848e-03,9.251478128135204315e-03,-5.275732278823852539e-02,2.520733140408992767e-02,-4.528939723968505859e-03,-1.340351998805999756e-03,1.426346972584724426e-02,1.610699737906080582e-03,8.055819805779828365e-04
5.809978842735290527e-01,-3.975964486598968506e-01,-7.455550879240036011e-02,9.897649288177490234e-04,1.765365749597549438e-01,-3.267177045345306396e-01,2.851328998804092407e-02,-1.888394355773925781e-02,-1.457089930772781372e-02,1.438235305249691010e-02,2.490647511946257869e-03,6.674718781698403330e-04
-2.864141464233398438e-01,1.834586560726165771e-01,1.463248953223228455e-02,-4.221581295132637024e-02,-5.351498350501060486e-02,7.953023910522460938e-02,2.397095039486885071e-02,1.175504922866821289e-02,1.177171524614095688e-02,1.430992595851421356e-02,2.019408461333043695e-03,7.019548699181061592e-04
-7.094083726406097412e-02,2.971994876861572266e-02,8.005745708942413330e-03,-8.214935660362243652e-03,-1.812835969030857086e-02,-1.026993989944458008e-02,2.479809895157814026e-02,4.095047712326049805e-03,3.668170887976884842e-03,1.426034234464168549e-02,1.602254025355723602e-03,7.661022996470601533e-04
-1.147644221782684326e-02,-1.039552688598632812e-02,5.765512585639953613e-03,3.525435924530029297e-03,-3.851297777146100998e-03,-2.810102701187133789e-02,2.494894154369831085e-02,4.417061805725097656e-03,1.038777641952037811e-03,1.426057517528533936e-02,1.592188332478962571e-03,7.910415874327754145e-04
9.706696867942810059e-02,-8.319288492202758789e-02,-6.537284702062606812e-03,5.554892122745513916e-03,2.430680207908153534e-02,-8.356207609176635742e-02,2.555120922625064850e-02,-8.191943168640136719e-03,-3.888312727212905884e-03,1.426830422133207321e-02,1.649065324097899032e-03,8.135605283766595471e-04
-1.306797415018081665e-01,7.165747880935668945e-02,1.313215866684913635e-02,-1.051480323076248169e-02,-2.962862141430377960e-02,2.219474315643310547e-02,2.446109801530838013e-02,9.599059820175170898e-03,6.247177720069885254e-03,1.426472049206495285e-02,1.650323415867629376e-03,7.452992239698329625e-04
-1.202133446931838989e-01,6.396594643592834473e-02,1.090103760361671448e-02,-1.390401273965835571e-02,-2.812919393181800842e-02,1.124367117881774902e-02,2.458830550312995911e-02,7.839053869247436523e-03,5.785981193184852600e-03,1.426355820149183273e-02,1.639497351153569940e-03,7.469442144163915796e-04
1.201707601547241211e+00,-6.742392778396606445e-01,-2.440017461776733398e-01,-1.323777586221694946e-01,5.030081868171691895e-01,-6.789478063583374023e-01,3.414939716458320618e-02,1.557052135467529297e-03,1.329013146460056305e-03,1.480254717171192169e-02,4.332373744058301557e-03,3.777701006584777382e-04
1.910803318023681641e-01,-1.447593718767166138e-01,-1.474411785602569580e-02,1.619090884923934937e-02,5.206641182303428650e-02,-1.174651831388473511e-01,2.589509822428226471e-02,-6.122946739196777344e-03,-7.781302556395530701e-03,1.427776459604501724e-02,1.727153950084370703e-03,8.174811255195283668e-04
3.036648035049438477e-03,-2.037608623504638672e-02,3.872811794281005859e-03,2.843841910362243652e-03,-5.127689219079911709e-04,-3.710415959358215332e-02,2.504900284111499786e-02,-5.088955163955688477e-03,3.680661320686340332e-04,1.426121406257152557e-02,1.596099833166099392e-03,7.946683662161025839e-04
1.836355030536651611e-02,-3.096571564674377441e-02,1.395761966705322266e-03,8.671581745147705078e-04,2.968555316329002380e-03,-4.824960231781005859e-02,2.517770789563655853e-02,1.680552959442138672e-04,-3.477204591035842896e-04,1.426210533827543259e-02,1.602634862861281690e-03,7.975006316776285303e-04
7.917402386665344238e-01,-5.097591280937194824e-01,-1.278087198734283447e-01,-4.734576120972633362e-02,2.659890651702880859e-01,-4.692559838294982910e-01,3.064222447574138641e-02,-8.118957281112670898e-03,-1.075372099876403809e-02,1.453189924359321594e-02,3.260254875180176350e-03,5.861723082516651171e-04
7.394149154424667358e-02,-6.784600019454956055e-02,-3.615975379943847656e-03,5.621336400508880615e-03,1.795009896159172058e-02,-7.141909003257751465e-02,2.541580609977245331e-02,-2.310961484909057617e-03,-2.855133265256881714e-03,1.426618080586194992e-02,1.631895321800480320e-03,8.109327033851092660e-04
1.664717048406600952e-01,-1.290860623121261597e-01,-1.455838233232498169e-02,7.802531123161315918e-03,4.405022040009498596e-02,-1.163764446973800659e-01,2.591376379132270813e-02,-7.334947586059570312e-03,-6.837829947471618652e-03,1.427535433322191238e-02,1.708163549644434089e-03,8.153021286579453623e-04
9.677675366401672363e-02,-8.261176943778991699e-02,-4.997737705707550049e-03,9.802930057048797607e-03,2.476152963936328888e-02,-7.752436399459838867e-02,2.546826377511024475e-02,-5.642950534820556641e-03,-3.852785564959049225e-03,1.426814310252666473e-02,1.646482733502819791e-03,8.159428191321691599e-04
1.859673500061035156e+00,-8.112174272537231445e-01,-5.098309516906738281e-01,-3.756680488586425781e-01,1.030138731002807617e+00,-1.017463684082031250e+00,4.139478504657745361e-02,1.453205943107604980e-02,9.713676758110523224e-03,1.487640105187892914e-02,4.593654859700153914e-03,4.917205731484213167e-05
-1.042259186506271362e-01,5.282801389694213867e-02,1.018755510449409485e-02,-1.154421269893646240e-02,-2.496704459190368652e-02,4.843801259994506836e-03,2.464816719293594360e-02,3.713041543960571289e-03,5.113250110298395157e-03,1.426209323108196259e-02,1.623757605263682251e-03,7.533403488497795964e-04
7.840412855148315430e-01,-5.067958831787109375e-01,-1.173321008682250977e-01,-2.229448780417442322e-02,2.642273306846618652e-01,-4.339340329170227051e-01,3.003586269915103912e-02,-8.835941553115844727e-03,-1.103586144745349884e-02,1.452306192368268967e-02,3.219555480412228474e-03,5.920976008486251736e-04
2.392457127571105957e-01,-1.767849624156951904e-01,-2.060122601687908173e-02,1.730462908744812012e-02,6.609384715557098389e-02,-1.406206339597702026e-01,2.615768648684024811e-02,-9.936958551406860352e-03,-9.562022984027862549e-03,1.428342238068580627e-02,1.777181236401169980e-03,8.090475139926985764e-04
2.260964214801788330e-01,-1.685312539339065552e-01,-2.122171595692634583e-02,1.074409484863281250e-02,6.151843070983886719e-02,-1.429274678230285645e-01,2.620897069573402405e-02,-9.072959423065185547e-03,-9.120566770434379578e-03,1.428208220750093460e-02,1.766713009555053197e-03,8.083220034133811131e-04
4.042555689811706543e-01,-2.877563238143920898e-01,-4.917076230049133301e-02,-8.520185947418212891e-04,1.138089075684547424e-01,-2.484864294528961182e-01,2.752680890262126923e-02,-9.054958820343017578e-03,-1.385561563074588776e-02,1.431378256529569626e-02,2.032855626763867014e-03,7.407041363185308059e-04
1.574675321578979492e+00,-7.662844061851501465e-01,-3.888041675090789795e-01,-2.687495946884155273e-01,7.820150256156921387e-01,-8.861595392227172852e-01,3.834760189056396484e-02,2.635061740875244141e-03,7.984599098563194275e-03,1.487081963568925858e-02,4.573389506948069214e-03,1.488954269932002276e-04
1.368445992469787598e+00,-7.223201990127563477e-01,-3.015801608562469482e-01,-1.791417300701141357e-01,6.211141347885131836e-01,-7.599543333053588867e-01,3.568571805953979492e-02,5.490064620971679688e-03,5.046948324888944626e-03,1.484898105263710022e-02,4.496341691209986870e-03,2.682349015926658209e-04
1.734272241592407227e+00,-7.945873737335205078e-01,-4.528807699680328369e-01,-3.209464550018310547e-01,9.179922342300415039e-01,-9.527342915534973145e-01,3.984157368540763855e-02,1.148104667663574219e-02,9.186568669974803925e-03,1.487534400075674057e-02,4.589729033403666843e-03,8.381126023398629795e-05
-3.399851918220520020e-01,2.239556014537811279e-01,1.675092056393623352e-02,-4.678240790963172913e-02,-5.859250202775001526e-02,1.100071072578430176e-01,2.367525175213813782e-02,1.451304554939270020e-02,1.323308236896991730e-02,1.433898787945508957e-02,2.215821588207153321e-03,7.025212091900603526e-04
4.644151926040649414e-01,-3.264479041099548340e-01,-5.367510020732879639e-02,1.019676774740219116e-02,1.345981359481811523e-01,-2.625932097434997559e-01,2.766021527349948883e-02,-2.138793468475341797e-02,-1.455186679959297180e-02,1.433068513870239258e-02,2.156039340389174965e-03,7.189240167428527810e-04
-2.338011115789413452e-01,1.450018584728240967e-01,1.557893678545951843e-02,-2.858484536409378052e-02,-4.654426872730255127e-02,6.285822391510009766e-02,2.409826964139938354e-02,7.000058889389038086e-03,1.012770831584930420e-02,1.428839564323425293e-02,1.856993198786038336e-03,7.117666737392493561e-04
-1.689670830965042114e-01,9.842336177825927734e-02,1.344170793890953064e-02,-1.941712945699691772e-02,-3.678417205810546875e-02,3.374874591827392578e-02,2.436997555196285248e-02,6.875067949295043945e-03,7.760607637465000153e-03,1.427087560296058655e-02,1.709460081581582521e-03,7.296693400209367094e-04
3.335271477699279785e-01,-2.399076670408248901e-01,-3.387093171477317810e-02,1.508514583110809326e-02,9.377235919237136841e-02,-1.915231943130493164e-01,2.676747366786003113e-02,-1.215395331382751465e-02,-1.240184158086776733e-02,1.429747790098190308e-02,1.900036145782769016e-03,7.775190664375570149e-04
-7.237821817398071289e-03,-1.375487446784973145e-02,3.449603915214538574e-03,-1.624636352062225342e-03,-3.468759823590517044e-03,-3.755766153335571289e-02,2.506984770298004150e-02,1.910060644149780273e-03,8.142329752445220947e-04,1.426084525883197784e-02,1.595404497411400616e-03,7.894161926784929850e-04
-1.183205842971801758e-02,-1.126784086227416992e-02,7.283203303813934326e-04,-1.068191975355148315e-02,-5.562745034694671631e-03,-4.737269878387451172e-02,2.520930767059326172e-02,2.290040254592895508e-03,9.748190641403198242e-04,1.426093373447656631e-02,1.599099412982236392e-03,7.835096916339944840e-04
-5.103988945484161377e-02,1.633894443511962891e-02,7.977712899446487427e-03,-2.444311976432800293e-03,-1.335199549794197083e-02,-1.390007138252258301e-02,2.481693588197231293e-02,5.368053913116455078e-03,2.807643264532089233e-03,1.425995398312807083e-02,1.594190353101026386e-03,7.756466544255782424e-04
2.263776063919067383e-01,-1.683336347341537476e-01,-1.948888972401618958e-02,1.571314781904220581e-02,6.217172369360923767e-02,-1.362353563308715820e-01,2.611277438700199127e-02,-1.137894392013549805e-02,-9.111121296882629395e-03,1.428190153092145920e-02,1.764002594918448246e-03,8.110436583092150899e-04
1.627763032913208008e+00,-7.779929637908935547e-01,-4.049185514450073242e-01,-2.727519273757934570e-01,8.267307877540588379e-01,-8.923048973083496094e-01,3.845996409654617310e-02,6.816059350967407227e-03,8.455102331936359406e-03,1.487292349338531494e-02,4.580940405483010375e-03,1.249966247186377086e-04
2.021256536245346069e-01,-1.533133536577224731e-01,-2.220542170107364655e-02,-7.545053958892822266e-04,5.328501760959625244e-02,-1.463817507028579712e-01,2.629211544990539551e-02,-7.326960563659667969e-03,-8.276255801320075989e-03,1.427982375025749207e-02,1.749096414992706112e-03,8.067198348449474169e-04
2.861842513084411621e-01,-2.088604569435119629e-01,-3.093388490378856659e-02,5.664236843585968018e-03,7.860960811376571655e-02,-1.804346591234207153e-01,2.667010575532913208e-02,-1.052394509315490723e-02,-1.112807542085647583e-02,1.429036352783441544e-02,1.840601313272934589e-03,7.895938137369535800e-04
-1.710902005434036255e-01,9.990596771240234375e-02,1.337342336773872375e-02,-2.012595161795616150e-02,-3.717722371220588684e-02,3.412088751792907715e-02,2.436845377087593079e-02,4.374057054519653320e-03,7.840732112526893616e-03,1.427130308002233505e-02,1.713405896698805796e-03,7.287669381151322835e-04
4.839982092380523682e-02,-5.231359601020812988e-02,-8.529447019100189209e-03,-1.698164641857147217e-02,8.493910543620586395e-03,-8.883140981197357178e-02,2.569283545017242432e-02,-7.072955369949340820e-03,-1.813892275094985962e-03,1.426501478999853134e-02,1.629346917856811872e-03,7.953880713042379676e-04
-2.274112254381179810e-01,1.403502225875854492e-01,1.533001288771629333e-02,-2.785874530673027039e-02,-4.569016024470329285e-02,5.967107415199279785e-02,2.412874996662139893e-02,7.867068052291870117e-03,9.907819330692291260e-03,1.428623590618371964e-02,1.839802132990533707e-03,7.130580358364531921e-04
-1.869437843561172485e-01,1.111528873443603516e-01,1.361243799328804016e-02,-2.329597622156143188e-02,-3.983366116881370544e-02,3.983148932456970215e-02,2.431942336261272430e-02,9.421050548553466797e-03,8.440870791673660278e-03,1.427478995174169540e-02,1.744499994406945942e-03,7.232759163001177072e-04
1.206601262092590332e+00,-6.768605709075927734e-01,-2.410462647676467896e-01,-1.211948767304420471e-01,5.069805383682250977e-01,-6.654031276702880859e-01,3.387245908379554749e-02,-3.158956766128540039e-03,1.419888809323310852e-03,1.480389758944511414e-02,4.337202589149872188e-03,3.753025379029462983e-04
5.509436130523681641e-02,-5.503916740417480469e-02,-4.231296479701995850e-04,8.087024092674255371e-03,1.321534253656864166e-02,-5.805552005767822266e-02,2.525924518704414368e-02,-1.645952463150024414e-03,-1.987855881452560425e-03,1.426453050225973129e-02,1.618216994191950999e-03,8.093342280701630023e-04
-1.781665235757827759e-01,1.045536398887634277e-01,1.107089221477508545e-02,-2.816611155867576599e-02,-3.898708894848823547e-02,2.776512503623962402e-02,2.446215040981769562e-02,1.222044229507446289e-03,8.076079189777374268e-03,1.427285093814134598e-02,1.728541999012229817e-03,7.233387868557527743e-04
-3.396125435829162598e-01,2.236448228359222412e-01,1.645896956324577332e-02,-4.750432819128036499e-02,-5.861736461520195007e-02,1.087960004806518555e-01,2.368970774114131927e-02,1.607304811477661133e-02,1.322075910866260529e-02,1.433874852955341339e-02,2.214345922128818558e-03,7.022405047882293626e-04
-4.088775813579559326e-02,8.505970239639282227e-03,2.880822867155075073e-03,-1.360526680946350098e-02,-1.239300519227981567e-02,-3.493675589561462402e-02,2.508363872766494751e-02,6.584048271179199219e-03,2.284979447722434998e-03,1.426026877015829086e-02,1.598153294656691134e-03,7.732660323481891154e-04
-1.941190659999847412e-02,-5.634814500808715820e-03,3.855433315038681030e-03,-4.312954843044281006e-03,-6.588899530470371246e-03,-3.443577885627746582e-02,2.504541166126728058e-02,5.944043397903442383e-03,1.357040368020534515e-03,1.426046527922153473e-02,1.594440785438120713e-03,7.844830309429204167e-04
5.525650382041931152e-01,-3.808329403400421143e-01,-6.997966766357421875e-02,1.406461000442504883e-03,1.655598729848861694e-01,-3.140530884265899658e-01,2.834851294755935669e-02,-1.353695988655090332e-02,-1.472284086048603058e-02,1.436775363981723785e-02,2.401772296401487490e-03,6.786939457424395099e-04
7.665744423866271973e-02,-6.992068886756896973e-02,-5.056589841842651367e-03,2.507053315639495850e-03,1.830030791461467743e-02,-7.714632153511047363e-02,2.549084834754467010e-02,7.520616054534912109e-04,-2.994041889905929565e-03,1.426652446389198303e-02,1.635552842831924448e-03,8.095918433940081909e-04
1.875085592269897461e+00,-8.132871389389038086e-01,-5.162956714630126953e-01,-3.807265758514404297e-01,1.044280290603637695e+00,-1.023076057434082031e+00,4.153200611472129822e-02,1.037606596946716309e-02,9.759295731782913208e-03,1.487646345049142838e-02,4.593891648849968666e-03,4.586845851206929742e-05
-1.943929940462112427e-01,1.166846156120300293e-01,1.502083614468574524e-02,-2.119341492652893066e-02,-4.070623964071273804e-02,4.738727211952209473e-02,2.423376590013504028e-02,9.782046079635620117e-03,8.735700510442256927e-03,1.427661627531051636e-02,1.759706658810697823e-03,7.224859142465025379e-04
2.364838123321533203e-02,-3.473797440528869629e-02,-7.228180766105651855e-05,-1.518584787845611572e-03,3.991678357124328613e-03,-5.441194772720336914e-02,2.525389194488525391e-02,2.289056777954101562e-03,-6.037056446075439453e-04,1.426250673830509186e-02,1.606203300318399980e-03,7.974943592806766528e-04
-1.238641291856765747e-01,6.664854288101196289e-02,1.171757653355598450e-02,-1.262052357196807861e-02,-2.864810451865196228e-02,1.519367098808288574e-02,2.454210631549358368e-02,7.874041795730590820e-03,5.948032252490520477e-03,1.426393538713455200e-02,1.643025030540480082e-03,7.464027477286142281e-04
-2.893106341361999512e-01,1.857575476169586182e-01,1.599900797009468079e-02,-3.908398002386093140e-02,-5.355472862720489502e-02,8.562940359115600586e-02,2.389860711991786957e-02,1.666605472564697266e-02,1.187278330326080322e-02,1.431133970618247986e-02,2.029027219840729476e-03,7.030703564698027614e-04
-1.633827239274978638e-01,9.450677037239074707e-02,1.348394528031349182e-02,-1.791993528604507446e-02,-3.577227890491485596e-02,3.228634595870971680e-02,2.438023872673511505e-02,8.080065250396728516e-03,7.546504028141498566e-03,1.426979620009660721e-02,1.699467433039158646e-03,7.319091576843413756e-04
-2.408209443092346191e-02,-2.424865961074829102e-03,4.391755908727645874e-03,-4.263341426849365234e-03,-7.642767857760190964e-03,-3.173992037773132324e-02,2.501594275236129761e-02,-1.367956399917602539e-03,1.570965163409709930e-03,1.426032744348049164e-02,1.593882250243869271e-03,7.831142320646670811e-04
5.237316489219665527e-01,-3.634644746780395508e-01,-6.716856360435485840e-02,-2.994202077388763428e-03,1.543440073728561401e-01,-3.072616159915924072e-01,2.827947400510311127e-02,-1.563295722007751465e-02,-1.477197185158729553e-02,1.435482688248157501e-02,2.320178092349339544e-03,6.889197359158620712e-04
1.531334280967712402e+00,-7.595927715301513672e-01,-3.652473986148834229e-01,-2.367778718471527100e-01,7.472925782203674316e-01,-8.442734479904174805e-01,3.741721808910369873e-02,2.069056034088134766e-03,7.496215403079986572e-03,1.486820355057716370e-02,4.564076445568875443e-03,1.716816423709384496e-04
-9.828145802021026611e-02,4.854241013526916504e-02,9.100291877985000610e-03,-1.291696727275848389e-02,-2.399107627570629120e-02,-5.634725093841552734e-04,2.471050247550010681e-02,6.128042936325073242e-03,4.847421776503324509e-03,1.426168810576200485e-02,1.619593394753856240e-03,7.546348772059409274e-04
-6.501556932926177979e-02,2.581289410591125488e-02,8.415732532739639282e-03,-5.351543426513671875e-03,-1.660448126494884491e-02,-9.807676076889038086e-03,2.478317916393280029e-02,9.649068117141723633e-03,3.419728949666023254e-03,1.426015608012676239e-02,1.598949823598914662e-03,7.695426029251767027e-04
-1.131276339292526245e-01,5.908635258674621582e-02,1.091175898909568787e-02,-1.196680217981338501e-02,-2.665276639163494110e-02,9.603381156921386719e-03,2.459906600415706635e-02,1.728057861328125000e-03,5.494361277669668198e-03,1.426284573972225189e-02,1.631797229798871056e-03,7.502020833408094575e-04
-2.763493657112121582e-01,1.760242879390716553e-01,1.489530131220817566e-02,-3.945924341678619385e-02,-5.227047577500343323e-02,7.644417881965637207e-02,2.399380132555961609e-02,1.410403847694396973e-02,1.147613115608692169e-02,1.430527865886688232e-02,1.985729476916265474e-03,7.033063995960242435e-04
-9.055270254611968994e-02,4.345190525054931641e-02,1.001067832112312317e-02,-8.235812187194824219e-03,-2.202006801962852478e-02,1.220762729644775391e-03,2.467534318566322327e-02,1.880049705505371094e-03,4.536040127277374268e-03,1.426114886999130249e-02,1.612522552234284257e-03,7.595561679061959897e-04
1.071028485894203186e-01,-8.944635093212127686e-02,-6.206277757883071899e-03,1.006174832582473755e-02,2.765365317463874817e-02,-8.253659307956695557e-02,2.552318386733531952e-02,-1.108944416046142578e-03,-4.307117313146591187e-03,1.426912471652030945e-02,1.654517475343195024e-03,8.168859687845841802e-04
-1.262264996767044067e-01,6.816646456718444824e-02,1.113328710198402405e-02,-1.486282050609588623e-02,-2.929104119539260864e-02,1.358440518379211426e-02,2.456678263843059540e-02,6.871044635772705078e-03,6.035323720425367355e-03,1.426422316581010818e-02,1.646356784581917091e-03,7.445480126735177671e-04
1.241044253110885620e-01,-1.009776145219802856e-01,-9.302176535129547119e-03,7.389314472675323486e-03,3.205687180161476135e-02,-9.505976736545562744e-02,2.567346207797527313e-02,-3.977954387664794922e-03,-5.061279982328414917e-03,1.427090261131525040e-02,1.670130706509226478e-03,8.161362933267479487e-04
5.676031112670898438e-02,-5.700069665908813477e-02,-4.085190594196319580e-03,-1.666024327278137207e-03,1.245119702070951462e-02,-7.241024076938629150e-02,2.545340918004512787e-02,2.191066741943359375e-03,-2.117275260388851166e-03,1.426496636122465134e-02,1.624552777106574430e-03,8.042732638570603216e-04
-1.562575250864028931e-01,8.912774920463562012e-02,1.129225268959999084e-02,-2.217042073607444763e-02,-3.504677861928939819e-02,2.213138341903686523e-02,2.450129203498363495e-02,7.020056247711181641e-03,7.237088866531848907e-03,1.426855847239494324e-02,1.689023717155778339e-03,7.319629772609699114e-04
-6.982274353504180908e-02,2.906319499015808105e-02,8.462674915790557861e-03,-6.620176136493682861e-03,-1.772827282547950745e-02,-8.745253086090087891e-03,2.477620728313922882e-02,-5.509555339813232422e-04,3.627409692853689194e-03,1.426028553396463394e-02,1.601183676766327604e-03,7.672921826677944496e-04
-5.346517264842987061e-02,1.835972070693969727e-02,9.551942348480224609e-03,1.226954162120819092e-03,-1.345029007643461227e-02,-7.455855607986450195e-03,2.473506890237331390e-02,4.462063312530517578e-03,2.939034253358840942e-03,1.425992418080568314e-02,1.593317811085520055e-03,7.768815529750527828e-04
-2.161291688680648804e-01,1.320791840553283691e-01,1.429837569594383240e-02,-2.816328778862953186e-02,-4.427765309810638428e-02,5.195730924606323242e-02,2.420954033732414246e-02,7.014065980911254883e-03,9.503517299890518188e-03,1.428266055881977081e-02,1.811108127867440453e-03,7.148769488279284757e-04
1.535104513168334961e+00,-7.604852914810180664e-01,-3.663719892501831055e-01,-2.370762974023818970e-01,7.503757476806640625e-01,-8.448081016540527344e-01,3.742689266800880432e-02,1.038706302642822266e-02,7.538600824773311615e-03,1.486844755709171295e-02,4.564943397665675688e-03,1.697412823261114638e-04
1.896087229251861572e-01,-1.442892551422119141e-01,-1.670195162296295166e-02,1.014686375856399536e-02,5.092759430408477783e-02,-1.250514835119247437e-01,2.600448392331600189e-02,-7.909953594207763672e-03,-7.750697433948516846e-03,1.427782792598009109e-02,1.729226927431044879e-03,8.142190654396312850e-04
-1.046019643545150757e-01,5.308249592781066895e-02,1.017056405544281006e-02,-1.169452816247940063e-02,-2.505271509289741516e-02,4.864215850830078125e-03,2.464846707880496979e-02,4.497051239013671875e-03,5.128678400069475174e-03,1.426212396472692490e-02,1.624119400723462482e-03,7.531408189748923674e-04
4.280436635017395020e-01,-3.029339313507080078e-01,-4.760325700044631958e-02,1.270175725221633911e-02,1.227407455444335938e-01,-2.418643087148666382e-01,2.739205770194530487e-02,-2.304893732070922852e-02,-1.418041251599788666e-02,1.431916095316410065e-02,2.072037808609158895e-03,7.360799776074182467e-04
-1.253025680780410767e-01,6.741148233413696289e-02,1.050912216305732727e-02,-1.634227484464645386e-02,-2.927645109593868256e-02,1.102152466773986816e-02,2.459898218512535095e-02,4.063040018081665039e-03,5.988137330859899521e-03,1.426413655281066895e-02,1.645798184423571432e-03,7.441331081108696613e-04
-5.048008263111114502e-02,1.609966158866882324e-02,8.519720286130905151e-03,-7.641687989234924316e-04,-1.304256077855825424e-02,-1.191410422325134277e-02,2.478975243866443634e-02,5.035042762756347656e-03,2.792242914438247681e-03,1.425993070006370544e-02,1.593457655391639777e-03,7.767395561218258136e-04
2.845480740070343018e-01,-2.075159847736358643e-01,-2.909967117011547089e-02,1.018573343753814697e-02,7.860773056745529175e-02,-1.734477579593658447e-01,2.656988985836505890e-02,-1.363795995712280273e-02,-1.106597483158111572e-02,1.428985968232154846e-02,1.835469050768351708e-03,7.924174240382555849e-04
1.169420629739761353e-01,-9.560972452163696289e-02,-6.089113652706146240e-03,1.390428841114044189e-02,3.087362833321094513e-02,-8.230957388877868652e-02,2.550650946795940399e-02,-3.264933824539184570e-03,-4.716868512332439423e-03,1.426998153328895569e-02,1.660517059940785434e-03,8.196657724312983060e-04
2.260042726993560791e-02,-3.338587284088134766e-02,2.652723342180252075e-03,5.796492099761962891e-03,4.612758290022611618e-03,-4.375275969505310059e-02,2.511086501181125641e-02,3.719061613082885742e-03,-5.139661952853202820e-04,1.426225248724222183e-02,1.602059314882942715e-03,8.012624884885004772e-04
-1.685240119695663452e-01,9.812733530998229980e-02,1.352813467383384705e-02,-1.907034963369369507e-02,-3.668280690908432007e-02,3.393980860710144043e-02,2.436680346727371216e-02,9.577065706253051758e-03,7.744924165308475494e-03,1.427078619599342346e-02,1.708596900883400157e-03,7.299523066940961924e-04
8.187489956617355347e-02,-7.312302291393280029e-02,-4.649024456739425659e-03,5.500793457031250000e-03,2.010642364621162415e-02,-7.572989165782928467e-02,2.546411193907260895e-02,-1.007795333862304688e-02,-3.212024457752704620e-03,1.426689326763153076e-02,1.637617924400916556e-03,8.119120239086319388e-04
-5.898638069629669189e-02,2.195602655410766602e-02,9.205181151628494263e-03,-1.379758119583129883e-03,-1.491004880517721176e-02,-7.856428623199462891e-03,2.474844828248023987e-02,5.155056715011596680e-03,3.172310069203376770e-03,1.426000520586967468e-02,1.595626239831403380e-03,7.736461736166125270e-04
5.373522639274597168e-03,-2.207860350608825684e-02,3.168124705553054810e-03,1.618772745132446289e-03,-9.913116809912025928e-05,-4.008385539054870605e-02,2.508581802248954773e-02,-3.956943750381469727e-03,2.535358071327209473e-04,1.426135841757059097e-02,1.597402487226922806e-03,7.946105670702415229e-04
1.478613257408142090e+00,-7.484633922576904297e-01,-3.440420031547546387e-01,-2.173441648483276367e-01,7.053232192993164062e-01,-8.170186281204223633e-01,3.684351593255996704e-02,7.125049829483032227e-03,6.825997028499841690e-03,1.486393064260482788e-02,4.548942317223901924e-03,2.008198219877571058e-04
-8.760710060596466064e-02,4.046368598937988281e-02,4.229314625263214111e-03,-2.342957630753517151e-02,-2.300745621323585510e-02,-2.107697725296020508e-02,2.496733888983726501e-02,4.497051239013671875e-03,4.323557484894990921e-03,1.426135841757059097e-02,1.617262377069475857e-03,7.533901098863622116e-04
-6.085394322872161865e-02,2.211201190948486328e-02,3.653731197118759155e-03,-1.737517863512039185e-02,-1.702701672911643982e-02,-2.856197953224182129e-02,2.502747438848018646e-02,5.040049552917480469e-03,3.166276030242443085e-03,1.426038518548011780e-02,1.603164252586710900e-03,7.650287526500660316e-04
2.246652543544769287e-02,-3.391066193580627441e-02,1.930370926856994629e-04,-1.162804663181304932e-03,3.740580985322594643e-03,-5.327978730201721191e-02,2.524017356336116791e-02,1.981049776077270508e-03,-5.474947392940521240e-04,1.426241919398307800e-02,1.605480616972623439e-03,7.974022990521030746e-04
-3.139838576316833496e-02,2.797603607177734375e-03,6.022337824106216431e-03,-1.960180699825286865e-03,-9.020382538437843323e-03,-2.444714307785034180e-02,2.492883056402206421e-02,-7.439553737640380859e-04,1.918314024806022644e-03,1.426010858267545700e-02,1.592420232156066063e-03,7.821046670755274575e-04
1.852562278509140015e-01,-1.411025524139404297e-01,-1.488710194826126099e-02,1.367424428462982178e-02,5.010036006569862366e-02,-1.179498881101608276e-01,2.590997703373432159e-02,-5.849957466125488281e-03,-7.564185187220573425e-03,1.427719928324222565e-02,1.722817337806849518e-03,8.167615056354355892e-04
3.077694475650787354e-01,-2.230660617351531982e-01,-3.258756920695304871e-02,9.056933224201202393e-03,8.540337532758712769e-02,-1.867399662733078003e-01,2.673277817666530609e-02,-1.911994814872741699e-02,-1.174172759056091309e-02,1.429347041994333267e-02,1.866921182044028408e-03,7.840159977312527537e-04
1.057444512844085693e-02,-2.562826871871948242e-02,2.517648041248321533e-03,1.476317644119262695e-03,1.138711115345358849e-03,-4.314318299293518066e-02,2.511969208717346191e-02,6.551057100296020508e-03,1.366529613733291626e-05,1.426163874566555023e-02,1.599281404009084357e-03,7.958838569687443900e-04
-6.895084679126739502e-02,2.842345833778381348e-02,8.228562772274017334e-03,-7.018640637397766113e-03,-1.759385876357555389e-02,-9.797424077987670898e-03,2.478887140750885010e-02,-4.189610481262207031e-04,3.586178645491600037e-03,1.426026970148086548e-02,1.600997925422758443e-03,7.673755957563301641e-04
-2.041451781988143921e-01,1.236772835254669189e-01,1.532030478119850159e-02,-2.264136448502540588e-02,-4.219208657741546631e-02,5.166208744049072266e-02,2.419426664710044861e-02,7.683038711547851562e-03,9.093219414353370667e-03,1.427919790148735046e-02,1.781661698563415368e-03,7.196880339402414711e-04
-2.179962396621704102e-02,-3.907501697540283203e-03,4.521943628787994385e-03,-3.191865980625152588e-03,-7.004327140748500824e-03,-3.155738115310668945e-02,2.501017600297927856e-02,-2.306938171386718750e-03,1.472683623433113098e-03,1.426036562770605087e-02,1.593599770296075637e-03,7.843598035148444938e-04
2.002982944250106812e-01,-1.515365391969680786e-01,-1.873483136296272278e-02,8.317157626152038574e-03,5.378397181630134583e-02,-1.330515146255493164e-01,2.610348723828792572e-02,-9.253948926925659180e-03,-8.171534165740013123e-03,1.427913364022970200e-02,1.741142398732343794e-03,8.116998954616990759e-04
1.684333384037017822e-01,-1.301500499248504639e-01,-1.374543085694313049e-02,1.079933345317840576e-02,4.496452957391738892e-02,-1.132576018571853638e-01,2.586705982685089111e-02,-6.691932678222656250e-03,-6.903864443302154541e-03,1.427544839680194855e-02,1.708222117046920459e-03,8.168196511108067508e-04
-1.614841073751449585e-01,9.332132339477539062e-02,1.422665640711784363e-02,-1.540223509073257446e-02,-3.522957861423492432e-02,3.451105952262878418e-02,2.434848435223102570e-02,6.872057914733886719e-03,7.484311703592538834e-03,1.426944136619567871e-02,1.695717679664067662e-03,7.336530575830933678e-04
2.376146167516708374e-01,-1.758883744478225708e-01,-2.122306264936923981e-02,1.495952159166336060e-02,6.534856557846069336e-02,-1.430193334817886353e-01,2.619430981576442719e-02,-1.072993874549865723e-02,-9.514058008790016174e-03,1.428331527858972549e-02,1.776749256355493250e-03,8.080971503365336119e-04
1.879451721906661987e-01,-1.427942663431167603e-01,-1.483035832643508911e-02,1.480966061353683472e-02,5.100443214178085327e-02,-1.177637130022048950e-01,2.590363286435604095e-02,-8.180946111679077148e-03,-7.664851844310760498e-03,1.427745912224054337e-02,1.724826452457343126e-03,8.170845764517924810e-04
-2.770756185054779053e-02,1.510381698608398438e-04,5.164828151464462280e-03,-3.222212195396423340e-03,-8.340139873325824738e-03,-2.826726436614990234e-02,2.497460879385471344e-02,5.810558795928955078e-04,1.742568798363208771e-03,1.426021195948123932e-02,1.593124862872949757e-03,7.825628170419133937e-04
-9.874626994132995605e-03,-1.174494624137878418e-02,4.609398543834686279e-03,7.902383804321289062e-04,-3.802191000431776047e-03,-3.276744484901428223e-02,2.500920556485652924e-02,-5.526959896087646484e-03,9.491695091128349304e-04,1.426068507134914398e-02,1.593695077208340206e-03,7.899765675605007267e-04
-2.215039581060409546e-01,1.358313560485839844e-01,1.350711658596992493e-02,-3.152681514620780945e-02,-4.526015743613243103e-02,5.093708634376525879e-02,2.423124015331268311e-02,8.079051971435546875e-03,9.679811075329780579e-03,1.428432762622833252e-02,1.825141797109084861e-03,7.124955244498530670e-04
1.240668520331382751e-01,-1.010092496871948242e-01,-9.536258876323699951e-03,6.715610623359680176e-03,3.196380287408828735e-02,-9.597054123878479004e-02,2.568620257079601288e-02,-6.667941808700561523e-03,-5.063030868768692017e-03,1.427092310041189194e-02,1.670501514099530108e-03,8.157600300790601288e-04
1.902329087257385254e+00,-8.158450126647949219e-01,-5.304824709892272949e-01,-3.969820141792297363e-01,1.069252014160156250e+00,-1.042006731033325195e+00,4.200715199112892151e-02,1.614004373550415039e-02,9.834059514105319977e-03,1.487655565142631531e-02,4.594242256521434420e-03,4.033026461388074252e-05
-1.014250665903091431e-01,5.101814866065979004e-02,1.070223748683929443e-02,-9.346179664134979248e-03,-2.421279810369014740e-02,6.163418292999267578e-03,2.462658658623695374e-02,1.253804564476013184e-02,5.004314705729484558e-03,1.426185853779315948e-02,1.620741934007377712e-03,7.553742888984834323e-04
-1.171504706144332886e-01,6.165993213653564453e-02,9.872164577245712280e-03,-1.592747122049331665e-02,-2.778382226824760437e-02,6.654828786849975586e-03,2.464393712580204010e-02,1.207205653190612793e-02,5.644319579005241394e-03,1.426327787339687347e-02,1.637048008822932508e-03,7.469606140645230433e-04
-1.358196884393692017e-01,7.521781325340270996e-02,1.315040513873100281e-02,-1.181342452764511108e-02,-3.064724244177341461e-02,2.356228232383728027e-02,2.445112727582454681e-02,7.429063320159912109e-03,6.454704329371452332e-03,1.426538452506065369e-02,1.657073273549096361e-03,7.430370003331407359e-04
-6.611223518848419189e-02,2.610912919044494629e-02,6.261575967073440552e-03,-1.166370511054992676e-02,-1.751200668513774872e-02,-1.777526736259460449e-02,2.489081025123596191e-02,2.566039562225341797e-03,3.433028701692819595e-03,1.426030136644840240e-02,1.601944634668653897e-03,7.659829796343111839e-04
-1.033147722482681274e-01,5.228227376937866211e-02,1.056782901287078857e-02,-1.023986935615539551e-02,-2.466103620827198029e-02,6.073772907257080078e-03,2.463061362504959106e-02,1.785039901733398438e-03,5.081182811409235001e-03,1.426200754940509796e-02,1.622568040529555203e-03,7.542957222440158831e-04
2.137505263090133667e-01,-1.606052815914154053e-01,-2.111601829528808594e-02,6.531722843647003174e-03,5.746197700500488281e-02,-1.423870176076889038e-01,2.621839568018913269e-02,-9.890943765640258789e-03,-8.685126900672912598e-03,1.428079884499311447e-02,1.756231065164743418e-03,8.084833076866556993e-04
9.662549942731857300e-02,-8.360598981380462646e-02,-9.776510298252105713e-03,-3.737993538379669189e-03,2.304838970303535461e-02,-9.612005949020385742e-02,2.572642639279365540e-02,-9.442955255508422852e-03,-3.915552049875259399e-03,1.426864415407180786e-02,1.654425122511207508e-03,8.086124544730003598e-04
-1.684343963861465454e-01,9.797546267509460449e-02,1.303109154105186462e-02,-2.041497454047203064e-02,-3.679639846086502075e-02,3.207039833068847656e-02,2.439090237021446228e-02,8.424043655395507812e-03,7.734124548733234406e-03,1.427077502012252808e-02,1.708762971977759518e-03,7.293495171323286170e-04
9.184581786394119263e-02,-8.036315441131591797e-02,-8.746068924665451050e-03,-2.530403435230255127e-03,2.186752110719680786e-02,-9.198459982872009277e-02,2.567539550364017487e-02,-5.021959543228149414e-03,-3.697996027767658234e-03,1.426813006401062012e-02,1.649919960700398482e-03,8.087564811853699713e-04
2.804728746414184570e-01,-2.048864364624023438e-01,-2.908058278262615204e-02,8.730754256248474121e-03,7.724277675151824951e-02,-1.733660995960235596e-01,2.657437510788440704e-02,-9.500950574874877930e-03,-1.094610430300235748e-02,1.428935118019580841e-02,1.831271734884004545e-03,7.929499073289096372e-04
1.385441720485687256e-01,-1.106392294168472290e-01,-1.145893707871437073e-02,6.480447947978973389e-03,3.599603846669197083e-02,-1.037865430116653442e-01,2.577539533376693726e-02,-6.051957607269287109e-03,-5.683250725269317627e-03,1.427242346107959747e-02,1.683281905954548373e-03,8.157528180073207258e-04
-9.682808816432952881e-02,4.775020480155944824e-02,1.010546088218688965e-02,-9.726971387863159180e-03,-2.338246069848537445e-02,2.909064292907714844e-03,2.466250956058502197e-02,9.199053049087524414e-03,4.802079405635595322e-03,1.426154654473066330e-02,1.617365286923538696e-03,7.567066168183910705e-04
-3.306259214878082275e-02,3.109604120254516602e-03,1.999109983444213867e-03,-1.369300484657287598e-02,-1.068887021392583847e-02,-3.950834274291992188e-02,2.513384073972702026e-02,1.369059085845947266e-03,1.928743906319141388e-03,1.426039636135101318e-02,1.598130530853439021e-03,7.756892319571728495e-04
2.644532918930053711e-01,-1.939140707254409790e-01,-2.534813806414604187e-02,1.326169073581695557e-02,7.301017642021179199e-02,-1.590342819690704346e-01,2.638796716928482056e-02,-1.433694362640380859e-02,-1.042635552585124969e-02,1.428687758743762970e-02,1.808720717018317973e-03,8.001432656835176255e-04
5.207344889640808105e-01,-3.616333007812500000e-01,-6.741590052843093872e-02,-4.936978220939636230e-03,1.530561000108718872e-01,-3.085047304630279541e-01,2.830337919294834137e-02,-1.402994990348815918e-02,-1.476981304585933685e-02,1.435370929539203644e-02,2.313074880962452760e-03,6.895219057856654538e-04
3.558447957038879395e-02,-4.299467802047729492e-02,-2.465508878231048584e-03,-4.278890788555145264e-03,6.662880536168813705e-03,-6.466382741928100586e-02,2.537695877254009247e-02,-6.909370422363281250e-04,-1.165647991001605988e-03,1.426342129707336426e-02,1.613678378655870448e-03,7.987649380571550497e-04
3.677362203598022461e-01,-2.634535133838653564e-01,-4.409233480691909790e-02,-5.546510219573974609e-04,1.025763973593711853e-01,-2.298954427242279053e-01,2.729457616806030273e-02,-8.753955364227294922e-03,-1.320042647421360016e-02,1.430522091686725616e-02,1.965730286905376795e-03,7.563229218395472152e-04
1.121544718742370605e+00,-6.485719084739685059e-01,-2.130047976970672607e-01,-9.758798778057098389e-02,4.514443874359130859e-01,-6.202001571655273438e-01,3.306341916322708130e-02,-2.021938562393188477e-03,-9.168544784188270569e-04,1.476554386317729950e-02,4.199234101633354116e-03,4.295458423558190303e-04
9.463459253311157227e-01,-5.804731845855712891e-01,-1.638715416193008423e-01,-6.487474590539932251e-02,3.468642532825469971e-01,-5.379853844642639160e-01,3.169603645801544189e-02,-4.842936992645263672e-03,-6.253855302929878235e-03,1.465340889990329742e-02,3.774133906224060465e-03,5.244974651314941554e-04
-2.003156691789627075e-01,1.209086179733276367e-01,1.509262248873710632e-02,-2.237934619188308716e-02,-4.164260253310203552e-02,4.956561326980590820e-02,2.421511709690093994e-02,1.023706793785095215e-02,8.952057920396327972e-03,1.427815761417150497e-02,1.772930058387857302e-03,7.206247205723743422e-04
1.393487572669982910e+00,-7.288121581077575684e-01,-3.103224635124206543e-01,-1.856735944747924805e-01,6.399099826812744141e-01,-7.705807685852050781e-01,3.589344397187232971e-02,2.580046653747558594e-03,5.495038814842700958e-03,1.485322043299674988e-02,4.511235971057268174e-03,2.523820576491070562e-04
-9.248860180377960205e-02,4.478192329406738281e-02,1.006460562348365784e-02,-8.629150688648223877e-03,-2.243552356958389282e-02,1.830428838729858398e-03,2.467020228505134583e-02,5.717039108276367188e-03,4.618663340806961060e-03,1.426126435399055481e-02,1.613946637499990731e-03,7.587098435640576800e-04
-2.086603492498397827e-01,1.266880929470062256e-01,1.402870193123817444e-02,-2.721122652292251587e-02,-4.321018978953361511e-02,4.842308163642883301e-02,2.424304187297821045e-02,1.074504852294921875e-02,9.236175566911697388e-03,1.428046170622110367e-02,1.792948803532305301e-03,7.167297513148387271e-04
-1.580945998430252075e-01,9.070253372192382812e-02,1.296975836157798767e-02,-1.801487058401107788e-02,-3.494417667388916016e-02,2.887141704559326172e-02,2.441635541617870331e-02,7.024049758911132812e-03,7.333661895245313644e-03,1.426884066313505173e-02,1.690787912299927028e-03,7.333562104933243802e-04
7.810477614402770996e-01,-5.047515034675598145e-01,-1.228740960359573364e-01,-3.909405693411827087e-02,2.613909244537353516e-01,-4.549145698547363281e-01,3.040366992354393005e-02,-1.117894053459167480e-02,-1.105524413287639618e-02,1.452257856726646423e-02,3.217607965008039556e-03,5.908086955605961659e-04
1.433076262474060059e-01,-1.134728193283081055e-01,-1.066184416413307190e-02,1.043733209371566772e-02,3.781682997941970825e-02,-1.007872670888900757e-01,2.572682872414588928e-02,-5.726933479309082031e-03,-5.865335464477539062e-03,1.427277456969022751e-02,1.685205932270240773e-03,8.178982628973015387e-04
5.267585813999176025e-02,-5.368581414222717285e-02,-1.114081591367721558e-03,5.305796861648559570e-03,1.223043072968721390e-02,-6.062558293342590332e-02,2.529763989150524139e-02,-1.767933368682861328e-03,-1.893535256385803223e-03,1.426440849900245667e-02,1.618142803861996864e-03,8.073122765846781458e-04
-7.595299184322357178e-02,3.350508213043212891e-02,9.791720658540725708e-03,-4.692748188972473145e-03,-1.875799521803855896e-02,-2.528935670852661133e-03,2.470305748283863068e-02,1.171052455902099609e-03,3.911682404577732086e-03,1.426044758409261703e-02,1.603116597650342326e-03,7.662689677948960514e-04
-1.022763401269912720e-01,5.181282758712768555e-02,1.165215671062469482e-02,-6.946519017219543457e-03,-2.411925047636032104e-02,9.944736957550048828e-03,2.457822859287261963e-02,6.509065628051757812e-03,5.055100657045841217e-03,1.426190044730901718e-02,1.620658319087908954e-03,7.563337068788636951e-04
8.856756240129470825e-02,-7.806457579135894775e-02,-7.692404091358184814e-03,-7.218420505523681641e-04,2.117970399558544159e-02,-8.779804408550262451e-02,2.562172152101993561e-02,-3.749936819076538086e-03,-3.543287515640258789e-03,1.426774170249700546e-02,1.646272260824486631e-03,8.093396361308589915e-04
3.411653041839599609e-01,-2.451414763927459717e-01,-3.566852584481239319e-02,1.292712241411209106e-02,9.585081785917282104e-02,-1.983152925968170166e-01,2.685750089585781097e-02,-1.289394497871398926e-02,-1.259201578795909882e-02,1.429899409413337708e-02,1.913072104943182219e-03,7.734091079196933312e-04
2.299453169107437134e-01,-1.707088351249694824e-01,-1.993625052273273468e-02,1.576247811317443848e-02,6.321216374635696411e-02,-1.379926353693008423e-01,2.613295242190361023e-02,-1.194694638252258301e-02,-9.239174425601959229e-03,1.428233366459608078e-02,1.767841594117823979e-03,8.103006085794697139e-04
-2.451344281435012817e-01,1.531951427459716797e-01,1.540998741984367371e-02,-3.150615096092224121e-02,-4.815469682216644287e-02,6.636631488800048828e-02,2.407168969511985779e-02,1.256105303764343262e-02,1.050142385065555573e-02,1.429245993494987488e-02,1.889041302081992391e-03,7.090285144188499672e-04
-1.504275351762771606e-01,8.526718616485595703e-02,1.258527860045433044e-02,-1.713768392801284790e-02,-3.362020477652549744e-02,2.531316876411437988e-02,2.445076592266559601e-02,3.890067338943481445e-03,7.027458399534225464e-03,1.426754891872406006e-02,1.678704656739826630e-03,7.360016291678089058e-04
-1.430062204599380493e-01,8.016470074653625488e-02,1.294950023293495178e-02,-1.423329859972000122e-02,-3.210647404193878174e-02,2.467784285545349121e-02,2.444760687649250031e-02,3.828048706054687500e-03,6.739049218595027924e-03,1.426639687269926071e-02,1.667279108087681844e-03,7.396291159797276690e-04
3.262851238250732422e-01,-2.356885522603988647e-01,-3.713806718587875366e-02,3.262512385845184326e-03,9.036418795585632324e-02,-2.039399445056915283e-01,2.696216851472854614e-02,-9.320944547653198242e-03,-1.224630698561668396e-02,1.429693959653377533e-02,1.897230490568943074e-03,7.744471475127630115e-04
-2.894636392593383789e-01,1.860096156597137451e-01,1.709456369280815125e-02,-3.613645955920219421e-02,-5.333373695611953735e-02,8.965218067169189453e-02,2.384824678301811218e-02,1.510405540466308594e-02,1.189080625772476196e-02,1.431145146489143372e-02,2.029418049001854504e-03,7.042052653071457840e-04
1.561300158500671387e-01,-1.216210573911666870e-01,-1.081203669309616089e-02,1.462799310684204102e-02,4.194537177681922913e-02,-1.016113758087158203e-01,2.572066150605678558e-02,-5.103945732116699219e-03,-6.380684673786163330e-03,1.427398994565010071e-02,1.694517444533858493e-03,8.198577787330239277e-04
-1.304198652505874634e-01,7.116475701332092285e-02,1.162599027156829834e-02,-1.460871845483779907e-02,-2.999782934784889221e-02,1.647639274597167969e-02,2.453533187508583069e-02,-9.039342403411865234e-04,6.213200744241476059e-03,1.426471490412950516e-02,1.651154817686988161e-03,7.433414138053952335e-04
-2.407688945531845093e-01,1.499576568603515625e-01,1.494986936450004578e-02,-3.181899338960647583e-02,-4.766375571489334106e-02,6.308731436729431152e-02,2.410649880766868591e-02,1.051306724548339844e-02,1.035162247717380524e-02,1.429085060954093933e-02,1.876671617605388817e-03,7.094441986815062983e-04
-8.773520588874816895e-03,-1.273688673973083496e-02,3.485172986984252930e-03,-2.011068165302276611e-03,-3.872147994115948677e-03,-3.723275661468505859e-02,2.506768330931663513e-02,-6.059408187866210938e-04,8.825045078992843628e-04,1.426079217344522476e-02,1.595251140796009621e-03,7.887770166225076783e-04
4.382001161575317383e-01,-3.095867633819580078e-01,-4.951268061995506287e-02,1.136730611324310303e-02,1.259310394525527954e-01,-2.485668063163757324e-01,2.748050168156623840e-02,-1.652795076370239258e-02,-1.430249027907848358e-02,1.432222779840230942e-02,2.094913168133672246e-03,7.309873976478568078e-04
2.670605480670928955e-02,-3.594580292701721191e-02,2.946674823760986328e-03,7.986053824424743652e-03,5.907633807510137558e-03,-4.294839501380920410e-02,2.509421668946743011e-02,-4.859566688537597656e-04,-6.896508857607841492e-04,1.426247134804725647e-02,1.602895891436505573e-03,8.034818956958066820e-04
4.256437718868255615e-02,-4.690423607826232910e-02,9.539350867271423340e-05,5.272112786769866943e-03,9.598380886018276215e-03,-5.526861548423767090e-02,2.523881942033767700e-02,-1.863956451416015625e-03,-1.432273536920547485e-03,1.426363363862037659e-02,1.612277184938628281e-03,8.053476456085849160e-04
1.433177441358566284e-01,-1.142939031124114990e-01,-1.448594778776168823e-02,-3.267154097557067871e-04,3.653350844979286194e-02,-1.155970543622970581e-01,2.593497745692729950e-02,-2.515941858291625977e-03,-5.916189402341842651e-03,1.427323278039693832e-02,1.691894034974601984e-03,8.120794748565198298e-04
1.322506368160247803e-02,-2.767851948738098145e-02,1.147463917732238770e-03,-1.507930457592010498e-03,1.429477939382195473e-03,-4.870378971099853516e-02,2.519119158387184143e-02,3.322064876556396484e-03,-1.250403001904487610e-04,1.426186691969633102e-02,1.601786226217499385e-03,7.949514354778359874e-04
3.583259284496307373e-01,-2.571810185909271240e-01,-4.283238202333450317e-02,-5.889609456062316895e-04,9.970003366470336914e-02,-2.252283096313476562e-01,2.723710983991622925e-02,-1.530295610427856445e-02,-1.300413161516189575e-02,1.430326327681541443e-02,1.949947536697237485e-03,7.601648407809107359e-04
1.442161798477172852e-01,-1.140308976173400879e-01,-1.059355959296226501e-02,1.095645129680633545e-02,3.813616186380386353e-02,-1.005389392375946045e-01,2.572210878133773804e-02,-9.219348430633544922e-04,-5.901053547859191895e-03,1.427285093814134598e-02,1.685721800306504061e-03,8.181746847042384741e-04
-1.047454327344894409e-01,5.283850431442260742e-02,8.309993892908096313e-03,-1.688458025455474854e-02,-2.560960873961448669e-02,-2.083659172058105469e-03,2.474039047956466675e-02,7.565051317214965820e-03,5.106078926473855972e-03,1.426222268491983414e-02,1.626171037424949898e-03,7.505875062104474084e-04
1.867848485708236694e-01,-1.426134407520294189e-01,-1.729661971330642700e-02,7.450893521308898926e-03,4.980408772826194763e-02,-1.273067444562911987e-01,2.604044415056705475e-02,-1.011896133422851562e-02,-7.651625201106071472e-03,1.427762769162654877e-02,1.728101544533314606e-03,8.130965295811288639e-04
1.051663160324096680e+00,-6.224244236946105957e-01,-1.950846761465072632e-01,-9.039056301116943359e-02,4.076057672500610352e-01,-5.965147018432617188e-01,3.267896175384521484e-02,-2.275943756103515625e-03,-2.967447973787784576e-03,1.472640223801136017e-02,4.054960392118457310e-03,4.701104297253408523e-04
6.260675191879272461e-01,-4.234448075294494629e-01,-8.241480588912963867e-02,-8.225888013839721680e-04,1.945989280939102173e-01,-3.476228117942810059e-01,2.879201248288154602e-02,-2.166694402694702148e-02,-1.413701660931110382e-02,1.440841332077980042e-02,2.641280347476788852e-03,6.502222589569567855e-04
-1.451006680727005005e-01,8.128023147583007812e-02,1.107629388570785522e-02,-1.993616297841072083e-02,-3.301369398832321167e-02,1.825502514839172363e-02,2.453464083373546600e-02,1.917064189910888672e-03,6.794026121497154236e-03,1.426675450056791306e-02,1.671808757351192932e-03,7.362801163401819183e-04
9.077699184417724609e-01,-5.641068816184997559e-01,-1.517263501882553101e-01,-5.260464549064636230e-02,3.261907100677490234e-01,-5.115289092063903809e-01,3.125726431608200073e-02,-4.952937364578247070e-03,-7.465304806828498840e-03,1.462329924106597900e-02,3.652892210801785781e-03,5.422671118224186518e-04
-2.191121131181716919e-01,1.345329582691192627e-01,1.620168611407279968e-02,-2.362900227308273315e-02,-4.426365345716476440e-02,5.996730923652648926e-02,2.411174029111862183e-02,1.847806572914123535e-02,9.634230285882949829e-03,1.428359467536211014e-02,1.817886367332032958e-03,7.163344434741803412e-04
-1.907107681035995483e-01,1.139096617698669434e-01,1.411175355315208435e-02,-2.281909063458442688e-02,-4.033203795552253723e-02,4.285973310470581055e-02,2.428626269102096558e-02,7.442057132720947266e-03,8.587367832660675049e-03,1.427569612860679626e-02,1.752181334228450262e-03,7.225932224504026061e-04
1.656085550785064697e-01,-1.286687701940536499e-01,-1.518918573856353760e-02,5.716428160667419434e-03,4.355872422456741333e-02,-1.187995821237564087e-01,2.594921551644802094e-02,-5.829960107803344727e-03,-6.812026724219322205e-03,1.427535060793161392e-02,1.708646936822318585e-03,8.142318761017087623e-04
-9.508298337459564209e-02,4.666918516159057617e-02,1.060906797647476196e-02,-7.843449711799621582e-03,-2.285021170973777771e-02,4.440218210220336914e-03,2.463973127305507660e-02,7.756054401397705078e-03,4.736689850687980652e-03,1.426141336560249329e-02,1.615467430834524945e-03,7.582507001709232197e-04
-4.523016512393951416e-02,1.203361153602600098e-02,6.131961941719055176e-03,-5.853280425071716309e-03,-1.248792838305234909e-02,-2.190184593200683594e-02,2.491502836346626282e-02,2.140402793884277344e-04,2.524940762668848038e-03,1.426002103835344315e-02,1.594755624043787132e-03,7.757130113341849246e-04
1.735651493072509766e-02,-3.093469142913818359e-02,-1.576732844114303589e-03,-7.799066603183746338e-03,1.710031181573867798e-03,-5.957758426666259766e-02,2.533338591456413269e-02,2.833038568496704102e-03,-3.489926457405090332e-04,1.426232699304819107e-02,1.606952825668511893e-03,7.927684134116559384e-04
1.246806979179382324e-02,-2.668416500091552734e-02,3.202363848686218262e-03,4.016153514385223389e-03,1.903784694150090218e-03,-4.067775607109069824e-02,2.508371137082576752e-02,3.549039363861083984e-03,-5.868077278137207031e-05,1.426168717443943024e-02,1.598771208057702927e-03,7.977745376276430432e-04
2.517461776733398438e-01,-1.855750977993011475e-01,-2.435651607811450958e-02,1.136025041341781616e-02,6.906799226999282837e-02,-1.551713347434997559e-01,2.634971030056476593e-02,-7.988959550857543945e-03,-1.001299545168876648e-02,1.428528316318988800e-02,1.794977717878669171e-03,8.025940335595480512e-04
-1.932904124259948730e-02,-5.283683538436889648e-03,5.592480301856994629e-03,5.732700228691101074e-04,-6.007562391459941864e-03,-2.777391672134399414e-02,2.495586499571800232e-02,4.076063632965087891e-03,1.381374895572662354e-03,1.426036097109317780e-02,1.592204326644491678e-03,7.871188176784071422e-04
1.088166236877441406e+00,-6.365375518798828125e-01,-2.031596899032592773e-01,-9.083157032728195190e-02,4.304297864437103271e-01,-6.048603057861328125e-01,3.280081599950790405e-02,-4.940956830978393555e-03,-1.892480067908763885e-03,1.474753767251968384e-02,4.133342869730770829e-03,4.495834339492363351e-04
-8.403256535530090332e-03,-1.278895139694213867e-02,4.291798919439315796e-03,3.657788038253784180e-04,-3.508955240249633789e-03,-3.417211771011352539e-02,2.502596005797386169e-02,-7.149577140808105469e-04,8.791731670498847961e-04,1.426075305789709091e-02,1.594206327180918564e-03,7.901606810721475017e-04
4.053935408592224121e-02,-4.640921950340270996e-02,-3.485918045043945312e-03,-5.485117435455322266e-03,7.784098386764526367e-03,-6.898218393325805664e-02,2.542918920516967773e-02,-3.791958093643188477e-03,-1.398524269461631775e-03,1.426383387297391891e-02,1.617094220647872930e-03,7.992051448644792340e-04
4.032225608825683594e-01,-2.870411276817321777e-01,-4.852467402815818787e-02,5.510896444320678711e-04,1.136240586638450623e-01,-2.460945844650268555e-01,2.749154902994632721e-02,-1.496094465255737305e-02,-1.383847184479236603e-02,1.431340258568525314e-02,2.029804322214421881e-03,7.417264838153262959e-04
-1.466065645217895508e-03,-1.778611540794372559e-02,2.389572560787200928e-03,-2.758756279945373535e-03,-2.242640359327197075e-03,-4.232057929039001465e-02,2.512582391500473022e-02,-1.252949237823486328e-03,5.428185686469078064e-04,1.426113117486238480e-02,1.597462838089054116e-03,7.904186484110105196e-04
-1.925252228975296021e-01,1.152450442314147949e-01,1.438653841614723206e-02,-2.249354869127273560e-02,-4.056105017662048340e-02,4.444941878318786621e-02,2.426863089203834534e-02,4.164040088653564453e-03,8.658064529299736023e-03,1.427614409476518631e-02,1.755946215029873447e-03,7.223181542413164473e-04
-8.127470314502716064e-02,3.716722130775451660e-02,1.006561517715454102e-02,-5.455799400806427002e-03,-1.990331895649433136e-02,-4.519224166870117188e-04,2.468355745077133179e-02,4.362046718597412109e-03,4.143241327255964279e-03,1.426066178828477859e-02,1.606050974846118034e-03,7.640958009949839992e-04
3.188736736774444580e-01,-2.298469841480255127e-01,-3.052127361297607422e-02,1.897194981575012207e-02,8.978836238384246826e-02,-1.788031607866287231e-01,2.660055644810199738e-02,-1.599094271659851074e-02,-1.201617345213890076e-02,1.429474633187055588e-02,1.876176258552272273e-03,7.851870597147306806e-04
-2.819930315017700195e-01,1.804605722427368164e-01,1.700815185904502869e-02,-3.486269712448120117e-02,-5.248069018125534058e-02,8.633247017860412598e-02,2.387800067663192749e-02,1.432704925537109375e-02,1.167118456214666367e-02,1.430791150778532028e-02,2.004064378543549650e-03,7.048765354132250456e-04
1.300232768058776855e+00,-7.037605643272399902e-01,-2.776862680912017822e-01,-1.601559668779373169e-01,5.713121294975280762e-01,-7.283062338829040527e-01,3.507441282272338867e-02,-2.879500389099121094e-04,3.678564913570880890e-03,1.483416557312011719e-02,4.444263316852326874e-03,3.126882956771109270e-04
-7.574237883090972900e-02,3.325733542442321777e-02,9.338002651929855347e-03,-5.894489586353302002e-03,-1.884686388075351715e-02,-4.296332597732543945e-03,2.472609654068946838e-02,7.176041603088378906e-03,3.895320463925600052e-03,1.426045410335063934e-02,1.603444480341386551e-03,7.657053105663699181e-04
-1.346061378717422485e-01,7.436618208885192871e-02,1.309882476925849915e-02,-1.163851469755172729e-02,-3.042140230536460876e-02,2.305921912193298340e-02,2.445582114160060883e-02,1.140606403350830078e-02,6.405089050531387329e-03,1.426522340625524521e-02,1.655475881351281889e-03,7.435016779335930880e-04
-4.996679723262786865e-02,1.439037919044494629e-02,1.163806766271591187e-03,-2.108686044812202454e-02,-1.512657757848501205e-02,-3.984510898590087891e-02,2.516353316605091095e-02,-8.499324321746826172e-04,2.656602300703525543e-03,1.426048297435045242e-02,1.603104683694902936e-03,7.669551414533521154e-04
4.141449332237243652e-01,-2.937723398208618164e-01,-4.524678364396095276e-02,1.386552304029464722e-02,1.183852925896644592e-01,-2.335123717784881592e-01,2.728421799838542938e-02,-1.894494891166687012e-02,-1.399112492799758911e-02,1.431524567306041718e-02,2.042382111678760562e-03,7.427769646038270487e-04
-1.835314184427261353e-01,1.087726950645446777e-01,1.383563503623008728e-02,-2.186947315931320190e-02,-3.920472785830497742e-02,3.959339857101440430e-02,2.431712672114372253e-02,9.730041027069091797e-03,8.317098021507263184e-03,1.427399180829524994e-02,1.737341773422388302e-03,7.247579716949968448e-04
5.659622550010681152e-01,-3.887740373611450195e-01,-7.219265401363372803e-02,1.020140945911407471e-03,1.706675887107849121e-01,-3.203139603137969971e-01,2.843061648309230804e-02,-1.317495107650756836e-02,-1.466303318738937378e-02,1.437447592616081238e-02,2.443156509054572947e-03,6.732950804921597823e-04
-4.341940581798553467e-02,1.091799139976501465e-02,6.556931883096694946e-03,-4.122935235500335693e-03,-1.190377492457628250e-02,-2.057024836540222168e-02,2.489459700882434845e-02,2.344042062759399414e-03,2.452746964991092682e-03,1.425999589264392853e-02,1.593818339971423076e-03,7.771942131136540428e-04
7.740370035171508789e-01,-5.016238689422607422e-01,-1.174484491348266602e-01,-2.761221677064895630e-02,2.589104473590850830e-01,-4.375309348106384277e-01,3.011034242808818817e-02,-1.344895362854003906e-02,-1.126850768923759460e-02,1.451583113521337509e-02,3.186285120559969632e-03,5.947426603182373638e-04
-6.420269608497619629e-03,-1.413437724113464355e-02,4.109639674425125122e-03,4.841908812522888184e-04,-3.031131112948060036e-03,-3.511327505111694336e-02,2.503576502203941345e-02,-2.271950244903564453e-03,7.888227701187133789e-04,1.426083222031593323e-02,1.594603916098899423e-03,7.907829247772141896e-04
1.946736872196197510e-01,-1.475843936204910278e-01,-1.701373234391212463e-02,1.110929995775222778e-02,5.249229073524475098e-02,-1.263279318809509277e-01,2.601558342576026917e-02,9.010434150695800781e-04,-7.943518459796905518e-03,1.427836436778306961e-02,1.733712760539903724e-03,8.140682544823301054e-04
3.612117469310760498e-01,-2.589487135410308838e-01,-4.156848043203353882e-02,4.012048244476318359e-03,1.010339036583900452e-01,-2.204747349023818970e-01,2.716117352247238159e-02,-1.306095719337463379e-02,-1.305897720158100128e-02,1.430350542068481445e-02,1.951384513931929583e-03,7.610331128407732274e-04
1.496077418327331543e+00,-7.530149221420288086e-01,-3.484751582145690918e-01,-2.168441712856292725e-01,7.193787097930908203e-01,-8.173763751983642578e-01,3.683964908123016357e-02,1.940041780471801758e-03,7.050768006592988968e-03,1.486544869840145111e-02,4.554316006543674550e-03,1.912380729328793413e-04
-2.886368036270141602e-01,1.852488219738006592e-01,1.593257114291191101e-02,-3.912940248847007751e-02,-5.349181592464447021e-02,8.511579036712646484e-02,2.390398643910884857e-02,1.225304603576660156e-02,1.185242459177970886e-02,1.431101374328136444e-02,2.026726435218727338e-03,7.030632011856666240e-04
-1.486090868711471558e-01,8.413624763488769531e-02,1.329516246914863586e-02,-1.471751928329467773e-02,-3.308459743857383728e-02,2.746775746345520020e-02,2.441994845867156982e-02,7.108062505722045898e-03,6.966529414057731628e-03,1.426724810153245926e-02,1.675397602713205644e-03,7.377101581082562334e-04
-2.781543731689453125e-01,1.775662302970886230e-01,1.659798994660377502e-02,-3.519637510180473328e-02,-5.211337283253669739e-02,8.331814408302307129e-02,2.390981093049049377e-02,1.291704177856445312e-02,1.155176758766174316e-02,1.430613454431295395e-02,1.991342766186640720e-03,7.048812933392238720e-04
-2.836648821830749512e-01,1.815516650676727295e-01,1.587244495749473572e-02,-3.829070553183555603e-02,-5.292751267552375793e-02,8.289101719856262207e-02,2.392404526472091675e-02,1.119205355644226074e-02,1.170627493411302567e-02,1.430865470319986343e-02,2.009842771768915667e-03,7.034881473136264099e-04
3.867514729499816895e-01,-2.763140201568603516e-01,-4.998845979571342468e-02,-9.800381958484649658e-03,1.074677780270576477e-01,-2.517873346805572510e-01,2.760243974626064301e-02,-1.445993781089782715e-02,-1.357016339898109436e-02,1.431028079241514206e-02,2.006601470165558180e-03,7.446300421573230199e-04
1.020223855972290039e+00,-6.101477742195129395e-01,-1.868863850831985474e-01,-8.624575287103652954e-02,3.886796832084655762e-01,-5.840343236923217773e-01,3.247494623064994812e-02,-6.047934293746948242e-03,-3.925661556422710419e-03,1.470642071217298508e-02,3.979735370677058362e-03,4.871315320339182457e-04
-2.171591967344284058e-01,1.329070031642913818e-01,1.487452164292335510e-02,-2.681981027126312256e-02,-4.429370164871215820e-02,5.442154407501220703e-02,2.417956665158271790e-02,6.116062402725219727e-03,9.547543711960315704e-03,1.428297534584999084e-02,1.813439234329889283e-03,7.152690886205060466e-04
6.949265003204345703e-01,-4.609911143779754639e-01,-9.940822422504425049e-02,-1.611769199371337891e-02,2.229461371898651123e-01,-3.943789899349212646e-01,2.947593666613101959e-02,-1.210993528366088867e-02,-1.303342916071414948e-02,1.445554662495851517e-02,2.893355933270696633e-03,6.229884771378537420e-04
6.388436257839202881e-02,-6.177404522895812988e-02,-5.051784217357635498e-03,-1.934133470058441162e-03,1.430859230458736420e-02,-7.654990255832672119e-02,2.550045400857925415e-02,-3.793835639953613281e-05,-2.441556192934513092e-03,1.426557451486587524e-02,1.629368129161371231e-03,8.053402697076242735e-04
-1.262960582971572876e-01,6.845223903656005859e-02,1.231610402464866638e-02,-1.161185652017593384e-02,-2.897443249821662903e-02,1.803836226463317871e-02,2.450862340629100800e-02,1.104804873466491699e-02,6.056496873497962952e-03,1.426420267671346664e-02,1.645452763063925787e-03,7.461302862089804660e-04
-6.385846436023712158e-02,2.517825365066528320e-02,9.027574211359024048e-03,-3.308556973934173584e-03,-1.613974943757057190e-02,-7.681608200073242188e-03,2.475329861044883728e-02,2.437055110931396484e-03,3.379776142537593842e-03,1.426010485738515854e-02,1.597792450207531851e-03,7.710066846233139563e-04
2.162194550037384033e-01,-1.619148254394531250e-01,-1.974532008171081543e-02,1.127974689006805420e-02,5.871789902448654175e-02,-1.371395587921142578e-01,2.613977156579494476e-02,-6.156951189041137695e-03,-8.757941424846649170e-03,1.428086776286363602e-02,1.755821902306975955e-03,8.105909467351628435e-04
4.513812661170959473e-01,-3.182890117168426514e-01,-5.418267101049423218e-02,3.588356077671051025e-03,1.295536011457443237e-01,-2.653094232082366943e-01,2.772033773362636566e-02,-1.071193814277648926e-02,-1.444144174456596375e-02,1.432692073285579681e-02,2.129831266238578925e-03,7.219769272664182044e-04
-1.534018665552139282e-01,8.746701478958129883e-02,1.322375610470771790e-02,-1.613284647464752197e-02,-3.400657698512077332e-02,2.850964665412902832e-02,2.441380172967910767e-02,7.992058992385864258e-03,7.154067978262901306e-03,1.426802854984998703e-02,1.682948501425991089e-03,7.356106118107194223e-04
1.375100016593933105e-02,-2.802363038063049316e-02,1.138005405664443970e-03,-1.363284885883331299e-03,1.574680907651782036e-03,-4.879337549209594727e-02,2.519164979457855225e-02,-3.774940967559814453e-03,-1.483894884586334229e-04,1.426189392805099487e-02,1.601911705169258623e-03,7.951609905482247666e-04
6.968060731887817383e-01,-4.618036746978759766e-01,-1.028064042329788208e-01,-2.463188022375106812e-02,2.230499833822250366e-01,-4.062655866146087646e-01,2.967410162091255188e-02,-1.206293702125549316e-02,-1.297390274703502655e-02,1.445783488452434540e-02,2.905239164627099278e-03,6.207683625061287966e-04
1.571031808853149414e+00,-7.661511898040771484e-01,-3.855449557304382324e-01,-2.626217603683471680e-01,7.791897654533386230e-01,-8.783249855041503906e-01,3.816869854927062988e-02,4.214048385620117188e-03,7.942504249513149261e-03,1.487061101943254471e-02,4.572645685146995743e-03,1.508941585754633300e-04
-1.296104341745376587e-01,7.092437148094177246e-02,1.315725222229957581e-02,-1.016324758529663086e-02,-2.940651215612888336e-02,2.202275395393371582e-02,2.446170523762702942e-02,5.871057510375976562e-03,6.204291246831417084e-03,1.426458824425935745e-02,1.648944536502890352e-03,7.458161883823698733e-04
-3.095891475677490234e-01,2.009728848934173584e-01,1.662450656294822693e-02,-4.138448461890220642e-02,-5.564839765429496765e-02,9.629622101783752441e-02,2.379726432263851166e-02,1.312705874443054199e-02,1.244924962520599365e-02,1.432165224105119705e-02,2.100739964775154203e-03,7.024161756725864816e-04
-1.653241068124771118e-01,9.601017832756042480e-02,1.421203836798667908e-02,-1.639811694622039795e-02,-3.592970967292785645e-02,3.555390238761901855e-02,2.434094250202178955e-02,1.003405451774597168e-02,7.632325403392314911e-03,1.427016034722328186e-02,1.702439813342903046e-03,7.321010805357624964e-04
1.287953853607177734e-01,-1.035793423652648926e-01,-7.887974381446838379e-03,1.306066662073135376e-02,3.407185524702072144e-02,-8.963602781295776367e-02,2.559158205986022949e-02,-5.888938903808593750e-03,-5.234185606241226196e-03,1.427119318395853043e-02,1.670983277663472093e-03,8.194815594352372265e-04
1.952731311321258545e-01,-1.480390876531600952e-01,-1.734607666730880737e-02,1.039279997348785400e-02,5.258058756589889526e-02,-1.276216804981231689e-01,2.603314444422721863e-02,-8.809953927993774414e-03,-7.969761267304420471e-03,1.427846308797597885e-02,1.734756912066170043e-03,8.135830261837176218e-04
-3.354612588882446289e-01,2.204281389713287354e-01,1.577715203166007996e-02,-4.858438298106193542e-02,-5.837438255548477173e-02,1.045033037662506104e-01,2.373646199703216553e-02,1.247704029083251953e-02,1.311115268617868423e-02,1.433622371405363083e-02,2.198189302847995078e-03,7.014907893254466184e-04
5.974033474922180176e-01,-4.070896804332733154e-01,-7.795298099517822266e-02,-1.234643161296844482e-03,1.828560084104537964e-01,-3.364921808242797852e-01,2.864916063845157623e-02,-1.504394412040710449e-02,-1.443689502775669098e-02,1.439159456640481949e-02,2.545262060194258824e-03,6.606329304372150941e-04
2.935327887535095215e-01,-2.138220816850662231e-01,-3.239317983388900757e-02,4.311509430408477783e-03,8.065371215343475342e-02,-1.859906762838363647e-01,2.674167789518833160e-02,-1.239195466041564941e-02,-1.134914346039295197e-02,1.429154630750417709e-02,1.851062440451086734e-03,7.865357376980415321e-04
-1.437806040048599243e-01,8.032634854316711426e-02,1.088344305753707886e-02,-2.012923359870910645e-02,-3.281296789646148682e-02,1.718354225158691406e-02,2.454661764204502106e-02,6.095051765441894531e-03,6.738645024597644806e-03,1.426656264811754227e-02,1.670047385988273486e-03,7.365915666827299113e-04
3.529215455055236816e-01,-2.537519931793212891e-01,-4.456029087305068970e-02,-7.427915930747985840e-03,9.737613797187805176e-02,-2.316997647285461426e-01,2.734304964542388916e-02,-9.614944458007812500e-03,-1.289543509483337402e-02,1.430273894220590591e-02,1.946374750649598750e-03,7.594503400590502020e-04
1.200429946184158325e-01,-9.802898764610290527e-02,-7.783316075801849365e-03,1.022436469793319702e-02,3.127348050475120544e-02,-8.903133869171142578e-02,2.559525519609451294e-02,-5.296945571899414062e-03,-4.871140234172344208e-03,1.427039690315723419e-02,1.665080398944199062e-03,8.176212609772954762e-04
1.084460854530334473e+00,-6.343958377838134766e-01,-2.060387730598449707e-01,-1.009380221366882324e-01,4.274583756923675537e-01,-6.171140074729919434e-01,3.304141759872436523e-02,-2.936959266662597656e-03,-1.965746283531188965e-03,1.474615931510925293e-02,4.128258833265778527e-03,4.510836829140770854e-04
-1.694992929697036743e-01,9.864366054534912109e-02,1.254766061902046204e-02,-2.200535684823989868e-02,-3.710995614528656006e-02,3.059437870979309082e-02,2.441172488033771515e-02,9.359061717987060547e-03,7.767803035676479340e-03,1.427099574357271194e-02,1.711038436467934723e-03,7.283317662661108150e-04
-2.387005090713500977e-02,-2.649635076522827148e-03,4.000484943389892578e-03,-5.291111767292022705e-03,-7.711092010140419006e-03,-3.326591849327087402e-02,2.503615245223045349e-02,2.762049436569213867e-03,1.555456779897212982e-03,1.426035817712545395e-02,1.594398003656322116e-03,7.826445299808924881e-04
9.406343847513198853e-02,-8.080376684665679932e-02,-4.635129123926162720e-03,9.864099323749542236e-03,2.401985600590705872e-02,-7.602669298648834229e-02,2.545138821005821228e-02,-9.310960769653320312e-03,-3.732039593160152435e-03,1.426788605749607086e-02,1.644357436041897621e-03,8.157286727813447885e-04
-1.777226477861404419e-01,1.046690642833709717e-01,1.385278627276420593e-02,-2.042398229241371155e-02,-3.820921480655670166e-02,3.788039088249206543e-02,2.433016151189804077e-02,1.281306147575378418e-02,8.099388331174850464e-03,1.427269354462623596e-02,1.725746866314748461e-03,7.268893346473309907e-04
-1.392285376787185669e-01,7.723408937454223633e-02,1.136204600334167480e-02,-1.763651520013809204e-02,-3.180680423974990845e-02,1.775580644607543945e-02,2.453210763633251190e-02,3.072053194046020508e-03,6.564006209373474121e-03,1.426588743925094604e-02,1.663128168482124998e-03,7.391438931146447882e-04
-1.544357389211654663e-01,8.791419863700866699e-02,1.169006526470184326e-02,-2.061758562922477722e-02,-3.460645303130149841e-02,2.309376001358032227e-02,2.448589168488979340e-02,3.269046545028686523e-03,7.171617820858955383e-03,1.426823437213897705e-02,1.685737986079303800e-03,7.331981478475069246e-04
4.199441671371459961e-01,-2.976623773574829102e-01,-4.669702798128128052e-02,1.207482069730758667e-02,1.200656518340110779e-01,-2.387727797031402588e-01,2.735616825520992279e-02,-1.932394504547119141e-02,-1.407453045248985291e-02,1.431693881750106812e-02,2.055441844798124116e-03,7.393904075185239516e-04
-2.838288545608520508e-01,1.815210282802581787e-01,1.445445790886878967e-02,-4.217836633324623108e-02,-5.325275659561157227e-02,7.784527540206909180e-02,2.398810721933841705e-02,1.252904534339904785e-02,1.169361360371112823e-02,1.430870499461889267e-02,2.010709161450145634e-03,7.020286781566181496e-04
9.404435753822326660e-03,-2.478560805320739746e-02,2.844262868165969849e-03,2.013638615608215332e-03,9.193388395942747593e-04,-4.175952076911926270e-02,2.510266564786434174e-02,6.250441074371337891e-04,7.053371518850326538e-05,1.426156237721443176e-02,1.598606226932467204e-03,7.958783574748972030e-04
-2.483099550008773804e-01,1.554001867771148682e-01,1.460874453186988831e-02,-3.437214717268943787e-02,-4.876654222607612610e-02,6.462973356246948242e-02,2.409891225397586823e-02,1.000905036926269531e-02,1.059435866773128510e-02,1.429364643990993500e-02,1.898568448268108180e-03,7.074919384045321195e-04
2.174264192581176758e-01,-1.632416695356369019e-01,-2.270494028925895691e-02,3.417283296585083008e-03,5.817743763327598572e-02,-1.485206633806228638e-01,2.630153298377990723e-02,-6.490945816040039062e-03,-8.832370862364768982e-03,1.428140420466661453e-02,1.762204862326642672e-03,8.061805114820330340e-04
4.064932465553283691e-03,-2.108317613601684570e-02,3.729786723852157593e-03,2.773545682430267334e-03,-2.751126012299209833e-04,-3.776907920837402344e-02,2.505649253726005554e-02,1.390039920806884766e-03,3.203870728611946106e-04,1.426126714795827866e-02,1.596449666267817829e-03,7.949029532542301090e-04
-1.521361619234085083e-01,8.628913760185241699e-02,1.160641014575958252e-02,-2.026719599962234497e-02,-3.420079499483108521e-02,2.214413881301879883e-02,2.449471503496170044e-02,4.852056503295898438e-03,7.080079056322574615e-03,1.426785159856081009e-02,1.682138220639455613e-03,7.340313335090234642e-04
2.907525300979614258e-01,-2.114986032247543335e-01,-2.903623320162296295e-02,1.266262680292129517e-02,8.071733266115188599e-02,-1.732095032930374146e-01,2.655774913728237152e-02,-1.135194301605224609e-02,-1.124442555010318756e-02,1.429064013063907623e-02,1.841838196989228037e-03,7.917032394488720181e-04
1.224195733666419983e-01,-9.971277415752410889e-02,-8.493304252624511719e-03,9.069323539733886719e-03,3.179308772087097168e-02,-9.186376631259918213e-02,2.563131041824817657e-02,-8.680939674377441406e-03,-4.980003461241722107e-03,1.427067257463932037e-02,1.667738898129094089e-03,8.170362944264020297e-04
1.809203743934631348e+00,-8.039939403533935547e-01,-4.892588555812835693e-01,-3.603789210319519043e-01,9.842556715011596680e-01,-1.000309705734252930e+00,4.098127782344818115e-02,1.412704586982727051e-02,9.539511986076831818e-03,1.487611886113882065e-02,4.592595296534244739e-03,6.128046332988544077e-05
-6.629867851734161377e-02,2.636981010437011719e-02,6.963524967432022095e-03,-9.766496717929840088e-03,-1.734760776162147522e-02,-1.508671045303344727e-02,2.485524117946624756e-02,1.016005873680114746e-02,3.451977856457233429e-03,1.426026225090026855e-02,1.601179700663579774e-03,7.668590444251311604e-04
5.175476670265197754e-01,-3.597004711627960205e-01,-6.435108184814453125e-02,2.250663936138153076e-03,1.525821983814239502e-01,-2.975503206253051758e-01,2.813388779759407043e-02,-1.979994773864746094e-02,-1.477436348795890808e-02,1.435166876763105392e-02,2.299276539194057729e-03,6.932047145230199603e-04
-1.423548012971878052e-01,7.938784360885620117e-02,1.121957600116729736e-02,-1.883636415004730225e-02,-3.244961798191070557e-02,1.805192232131958008e-02,2.453305572271347046e-02,7.923066616058349609e-03,6.686830893158912659e-03,1.426634006202220917e-02,1.667691452354042687e-03,7.376233132907311077e-04
1.562342762947082520e+00,-7.645025253295898438e-01,-3.818873465061187744e-01,-2.591283917427062988e-01,7.720766663551330566e-01,-8.736487030982971191e-01,3.806633502244949341e-02,4.772067070007324219e-03,7.852500304579734802e-03,1.487015467137098312e-02,4.571016610959514545e-03,1.552152845801723041e-04
3.657194375991821289e-01,-2.615803778171539307e-01,-3.917254880070686340e-02,1.238124817609786987e-02,1.032490879297256470e-01,-2.113996744155883789e-01,2.701837196946144104e-02,-8.415937423706054688e-03,-1.313961669802665710e-02,1.430387049913406372e-02,1.953241411852586849e-03,7.631051732921130060e-04
-2.248091250658035278e-01,1.381834447383880615e-01,1.326793804764747620e-02,-3.291372954845428467e-02,-4.579754918813705444e-02,5.122911930084228516e-02,2.423278801143169403e-02,6.274044513702392578e-03,9.790614247322082520e-03,1.428538560867309570e-02,1.833846030892796871e-03,7.113638933837186868e-04
-1.475304216146469116e-01,8.268007636070251465e-02,9.024165570735931396e-03,-2.620516344904899597e-02,-3.400944545865058899e-02,1.132643222808837891e-02,2.462931163609027863e-02,7.461041212081909180e-03,6.860560271888971329e-03,1.426722388714551926e-02,1.677357784103370103e-03,7.327644439839152857e-04
2.144235223531723022e-01,-1.603540331125259399e-01,-1.789840683341026306e-02,1.581463217735290527e-02,5.872688442468643188e-02,-1.299724131822586060e-01,2.604004554450511932e-02,-1.095995306968688965e-02,-8.672747761011123657e-03,1.428046822547912598e-02,1.751211973120950271e-03,8.134933806008866211e-04
1.264264136552810669e-01,-1.024542599916458130e-01,-9.325865656137466431e-03,8.153103291988372803e-03,3.280015289783477783e-02,-9.520749747753143311e-02,2.567230351269245148e-02,-6.738960742950439453e-03,-5.157485604286193848e-03,1.427111122757196426e-02,1.671680364081872764e-03,8.166164892784560101e-04
-2.559922337532043457e-01,1.609340310096740723e-01,1.391048356890678406e-02,-3.790728375315666199e-02,-4.993725940585136414e-02,6.498914957046508789e-02,2.410667575895786285e-02,8.003056049346923828e-03,1.083252485841512680e-02,1.429663691669702530e-02,1.921752425469167155e-03,7.053102617735643133e-04
4.502877593040466309e-03,-2.137488126754760742e-02,3.705423325300216675e-03,2.846255898475646973e-03,-1.616179069969803095e-04,-3.791055083274841309e-02,2.505776844918727875e-02,-2.250939607620239258e-03,3.006793558597564697e-04,1.426128763705492020e-02,1.596555626639951020e-03,7.950590797560026703e-04
-2.248698025941848755e-01,1.384205818176269531e-01,1.468655839562416077e-02,-2.905360236763954163e-02,-4.547433182597160339e-02,5.642184615135192871e-02,2.416625432670116425e-02,1.232504844665527344e-02,9.811968542635440826e-03,1.428540050983428955e-02,1.833336620182944793e-03,7.129602951131948450e-04
-2.583277821540832520e-01,1.628179848194122314e-01,1.535981521010398865e-02,-3.445231541991233826e-02,-4.991564154624938965e-02,7.112696766853332520e-02,2.403229288756847382e-02,1.118105649948120117e-02,1.092540565878152847e-02,1.429758686572313309e-02,1.928387479730156581e-03,7.064548889168145284e-04
-1.669991463422775269e-01,9.684783220291137695e-02,1.233769580721855164e-02,-2.196753770112991333e-02,-3.672056645154953003e-02,2.908354997634887695e-02,2.442744933068752289e-02,1.004505157470703125e-02,7.668849546462297440e-03,1.427050586789846420e-02,1.706643289201394045e-03,7.290293590100732591e-04
-2.341257184743881226e-01,1.450866758823394775e-01,1.455731317400932312e-02,-3.144463524222373962e-02,-4.682917520403862000e-02,5.924689769744873047e-02,2.414491027593612671e-02,8.238047361373901367e-03,1.012476161122322083e-02,1.428849808871746063e-02,1.858265178818140203e-03,7.105142073073381602e-04
-5.367918312549591064e-02,1.790723204612731934e-02,7.121052592992782593e-03,-5.619056522846221924e-03,-1.426645461469888687e-02,-1.673009991645812988e-02,2.485845796763896942e-02,5.237042903900146484e-03,2.908412832766771317e-03,1.426001824438571930e-02,1.595996691835797118e-03,7.731128573870166970e-04
5.076001882553100586e-01,-3.536034822463989258e-01,-6.313032656908035278e-02,1.509435474872589111e-03,1.489032655954360962e-01,-2.940736413002014160e-01,2.809258550405502319e-02,-1.388993859291076660e-02,-1.476012542843818665e-02,1.434757187962532043e-02,2.272366764487544072e-03,6.970969487995573892e-04
4.255534708499908447e-02,-4.652544856071472168e-02,1.441471278667449951e-03,9.066313505172729492e-03,1.007078308612108231e-02,-5.000016093254089355e-02,2.516733668744564056e-02,-3.624945878982543945e-03,-1.409912481904029846e-03,1.426354795694351196e-02,1.610432632463351405e-03,8.075266486904306151e-04
-1.311960369348526001e-01,7.171016931533813477e-02,1.166495680809020996e-02,-1.470528542995452881e-02,-3.014219179749488831e-02,1.681789755821228027e-02,2.453204989433288574e-02,5.380064249038696289e-03,6.245220080018043518e-03,1.426481083035469055e-02,1.652117376413779308e-03,7.430498907181319222e-04
4.711367487907409668e-01,-3.308613896369934082e-01,-5.728954821825027466e-02,2.850785851478576660e-03,1.361902803182601929e-01,-2.755783498287200928e-01,2.785264141857624054e-02,-1.791194081306457520e-02,-1.460094377398490906e-02,1.433360110968351364e-02,2.177243268228679432e-03,7.131116440427181331e-04
2.501106262207031250e-02,-3.482067584991455078e-02,3.071412444114685059e-03,7.774300873279571533e-03,5.457510706037282944e-03,-4.232171177864074707e-02,2.508815005421638489e-02,2.050042152404785156e-03,-6.130542606115341187e-04,1.426236610859632492e-02,1.602222237507026133e-03,8.029679004845430767e-04
-1.772342771291732788e-01,1.038569211959838867e-01,1.079265028238296509e-02,-2.870443835854530334e-02,-3.889654949307441711e-02,2.645930647850036621e-02,2.447770349681377411e-02,7.332056760787963867e-03,8.036941289901733398e-03,1.427265908569097519e-02,1.726955415836467977e-03,7.233525783530271678e-04
6.770799160003662109e-01,-4.514573812484741211e-01,-9.522719681262969971e-02,-1.292496174573898315e-02,2.153062373399734497e-01,-3.834784626960754395e-01,2.931655198335647583e-02,-8.346945047378540039e-03,-1.336249709129333496e-02,1.444277260452508926e-02,2.827373510966657653e-03,6.296214877271510057e-04
1.121181964874267578e+00,-6.478996276855468750e-01,-2.155119925737380981e-01,-1.046703383326530457e-01,4.507866501808166504e-01,-6.292377710342407227e-01,3.323991596698760986e-02,-3.846943378448486328e-03,-9.043207392096519470e-04,1.476577762514352798e-02,4.200076103015452575e-03,4.293370019890608387e-04
5.294851660728454590e-01,-3.669526576995849609e-01,-6.804160773754119873e-02,-3.003798425197601318e-03,1.564674526453018188e-01,-3.098188042640686035e-01,2.831232920289039612e-02,-9.214937686920166016e-03,-1.476935669779777527e-02,1.435737498104572296e-02,2.336581481829881450e-03,6.865736059451489843e-04
1.826105266809463501e-01,-1.398008912801742554e-01,-1.657586917281150818e-02,7.964037358760833740e-03,4.866942763328552246e-02,-1.244574785232543945e-01,2.600576169788837433e-02,-6.670951843261718750e-03,-7.484922185540199280e-03,1.427713409066200256e-02,1.723655984705217909e-03,8.138678980144655427e-04
1.415984332561492920e-02,-2.846854925155639648e-02,3.234446048736572266e-04,-3.515012562274932861e-03,1.422462053596973419e-03,-5.196994543075561523e-02,2.523421496152877808e-02,-4.014939069747924805e-03,-1.791091635823249817e-04,1.426198240369558334e-02,1.603217579050279827e-03,7.941359257111361763e-04
-1.513794511556625366e-01,8.549001812934875488e-02,9.841773658990859985e-03,-2.493174746632575989e-02,-3.451930359005928040e-02,1.540607213973999023e-02,2.458170987665653229e-02,6.961047649383544922e-03,7.024487480521202087e-03,1.426779665052890778e-02,1.682480434842711188e-03,7.321663375959974046e-04
1.323596954345703125e+00,-7.100243568420410156e-01,-2.867997288703918457e-01,-1.693516075611114502e-01,5.880165100097656250e-01,-7.427747249603271484e-01,3.535810112953186035e-02,3.400057554244995117e-03,4.177466966211795807e-03,1.483988855034112930e-02,4.464387530796662916e-03,2.971595767238229056e-04
-1.582524031400680542e-01,9.072598814964294434e-02,1.248617842793464661e-02,-1.938550919294357300e-02,-3.510087728500366211e-02,2.711918950080871582e-02,2.443937771022319794e-02,1.139006018638610840e-02,7.332580164074897766e-03,1.426887698471546173e-02,1.691393492493079975e-03,7.326665003495334881e-04
5.057840943336486816e-01,-3.524921834468841553e-01,-6.356058269739151001e-02,-4.381388425827026367e-04,1.480616033077239990e-01,-2.958438992500305176e-01,2.812303602695465088e-02,-2.071693539619445801e-02,-1.475500501692295074e-02,1.434700563549995422e-02,2.268764139713976002e-03,6.971866811626319712e-04
-2.598725557327270508e-01,1.638691425323486328e-01,1.470958068966865540e-02,-3.654849901795387268e-02,-5.026078224182128906e-02,6.935861706733703613e-02,2.405724674463272095e-02,1.099005341529846191e-02,1.096578966826200485e-02,1.429820712655782700e-02,1.933345534156206838e-03,7.054908486765989637e-04
-9.781314432621002197e-02,4.826414585113525391e-02,9.320423007011413574e-03,-1.217715442180633545e-02,-2.382571250200271606e-02,1.624226570129394531e-04,2.470020577311515808e-02,3.099054098129272461e-03,4.831163678318262100e-03,1.426164526492357254e-02,1.618983428524847171e-03,7.551541071100222003e-04
1.723279654979705811e-01,-1.332205832004547119e-01,-1.650501787662506104e-02,4.443272948265075684e-03,4.532327875494956970e-02,-1.240034699440002441e-01,2.601361647248268127e-02,-4.922956228256225586e-03,-7.089646533131599426e-03,1.427614968270063400e-02,1.715876632944208840e-03,8.130108156438195987e-04
1.474222540855407715e-01,-1.162973046302795410e-01,-1.155499741435050964e-02,9.398065507411956787e-03,3.884923830628395081e-02,-1.043502688407897949e-01,2.577100135385990143e-02,-4.121959209442138672e-03,-6.043363362550735474e-03,1.427324395626783371e-02,1.689520655196081111e-03,8.172021736844399314e-04
-8.408422768115997314e-02,3.844249248504638672e-02,6.920732557773590088e-03,-1.498571038246154785e-02,-2.146687917411327362e-02,-1.176851987838745117e-02,2.483767084777355194e-02,1.209050416946411133e-03,4.213497973978519440e-03,1.426094863563776016e-02,1.611299293252896206e-03,7.583858152910618591e-04
-3.380737304687500000e-01,2.223843038082122803e-01,1.538323238492012024e-02,-5.013319477438926697e-02,-5.869204550981521606e-02,1.042663156986236572e-01,2.374364063143730164e-02,1.563704013824462891e-02,1.317121181637048721e-02,1.433777529746294022e-02,2.208362561946235810e-03,7.012179004602131938e-04
-1.773535758256912231e-01,1.045964956283569336e-01,1.484950259327888489e-02,-1.759575307369232178e-02,-3.788679465651512146e-02,4.146620631217956543e-02,2.428329735994338989e-02,1.357305049896240234e-02,8.100269362330436707e-03,1.427261251956224442e-02,1.724475764730610920e-03,7.283185373401661116e-04
-1.507566124200820923e-01,8.504560589790344238e-02,9.788818657398223877e-03,-2.491993084549903870e-02,-3.441690653562545776e-02,1.503753662109375000e-02,2.458557859063148499e-02,9.300053119659423828e-03,6.999161094427108765e-03,1.426769793033599854e-02,1.681559055069097508e-03,7.323556704948348556e-04
-8.532612025737762451e-02,3.927531838417053223e-02,6.830826401710510254e-03,-1.558560132980346680e-02,-2.177204564213752747e-02,-1.184916496276855469e-02,2.484061941504478455e-02,1.053065061569213867e-03,4.264979623258113861e-03,1.426101941615343094e-02,1.612247851176934520e-03,7.576860669884918301e-04
6.343570351600646973e-01,-4.279212951660156250e-01,-8.826510608196258545e-02,-1.329359412193298340e-02,1.969245374202728271e-01,-3.673757016658782959e-01,2.910527959465980530e-02,-1.484096050262451172e-02,-1.400752738118171692e-02,1.441480685025453568e-02,2.677394572716793302e-03,6.442103537607075632e-04
1.065856933593750000e+00,-6.262896060943603516e-01,-2.069197446107864380e-01,-1.144404485821723938e-01,4.149141907691955566e-01,-6.306064724922180176e-01,3.332435339689254761e-02,4.118055105209350586e-03,-2.459689043462276459e-03,1.473661325871944427e-02,4.092955517006818984e-03,4.607293921204847907e-04
1.602959632873535156e-01,-1.250648051500320435e-01,-1.414759457111358643e-02,6.730899214744567871e-03,4.216996580362319946e-02,-1.146688312292098999e-01,2.589822933077812195e-02,-4.973948001861572266e-03,-6.590157747268676758e-03,1.427472848445177078e-02,1.703000662633089544e-03,8.151362811522108297e-04
-1.447539478540420532e-01,8.144903182983398438e-02,1.328348740935325623e-02,-1.376175880432128906e-02,-3.235139697790145874e-02,2.639105916023254395e-02,2.442800812423229218e-02,4.913061857223510742e-03,6.813689135015010834e-03,1.426665391772985458e-02,1.669608387013855151e-03,7.393333228344307418e-04
-2.271059155464172363e-02,-3.090411424636840820e-03,5.442757159471511841e-03,-8.990839123725891113e-04,-6.947740446776151657e-03,-2.789744734764099121e-02,2.496239915490150452e-02,3.472059965133666992e-03,1.527572982013225555e-03,1.426029019057750702e-02,1.592468207183389030e-03,7.853119669163030094e-04
5.342410504817962646e-02,-5.430096387863159180e-02,-1.651618629693984985e-03,4.046209156513214111e-03,1.227052323520183563e-02,-6.276610493659973145e-02,2.532582357525825500e-02,-4.024952650070190430e-03,-1.934645697474479675e-03,1.426450442522764206e-02,1.619262603647608247e-03,8.067463282737905332e-04
4.653015732765197754e-01,-3.270667195320129395e-01,-5.456986278295516968e-02,8.065588772296905518e-03,1.346953809261322021e-01,-2.658705711364746094e-01,2.770973183214664459e-02,-1.703494787216186523e-02,-1.455903425812721252e-02,1.433115359395742416e-02,2.159558797260541663e-03,7.176741800971532959e-04
4.150226712226867676e-03,-2.102136611938476562e-02,4.176922142505645752e-03,4.056788980960845947e-03,-1.007200044114142656e-04,-3.604385256767272949e-02,2.503315731883049011e-02,1.492053270339965820e-03,3.239866346120834351e-04,1.426124572753906250e-02,1.595885565263724295e-03,7.956447724566475567e-04
1.126838922500610352e+00,-6.481921672821044922e-01,-2.252614498138427734e-01,-1.278851032257080078e-01,4.531017541885375977e-01,-6.601573228836059570e-01,3.384540975093841553e-02,1.795053482055664062e-03,-6.683785468339920044e-04,1.476999185979366302e-02,4.215354831577113742e-03,4.245080796392825093e-04
3.009700179100036621e-01,-2.182997763156890869e-01,-3.029580041766166687e-02,1.293312758207321167e-02,8.378642052412033081e-02,-1.780152320861816406e-01,2.661390230059623718e-02,-9.428948163986206055e-03,-1.154050603508949280e-02,1.429217774420976639e-02,1.855143895855149248e-03,7.883910848194201990e-04
3.834256529808044434e-02,-4.418444633483886719e-02,1.383461058139801025e-04,3.967896103858947754e-03,8.354574441909790039e-03,-5.480420589447021484e-02,2.523843385279178619e-02,3.775060176849365234e-03,-1.246547326445579529e-03,1.426335796713829041e-02,1.610633671549959291e-03,8.037478579882875685e-04
3.239587545394897461e-01,-2.339677810668945312e-01,-3.547177091240882874e-02,7.039949297904968262e-03,9.005030244588851929e-02,-1.976512670516967773e-01,2.687171846628189087e-02,-1.181694865226745605e-02,-1.217883825302124023e-02,1.429628301411867142e-02,1.891185944518209826e-03,7.771222407376035621e-04
4.987521469593048096e-02,-5.271619558334350586e-02,-4.864785820245742798e-03,-6.206780672073364258e-03,1.010855380445718765e-02,-7.496832311153411865e-02,2.549838088452816010e-02,-2.173960208892822266e-03,-1.827938482165336609e-03,1.426459010690450668e-02,1.623013599056933156e-03,8.007029839023875476e-04
1.553261280059814453e+00,-7.644994258880615234e-01,-3.725653290748596191e-01,-2.405664920806884766e-01,7.652181386947631836e-01,-8.499141335487365723e-01,3.753086552023887634e-02,7.946044206619262695e-03,7.738096639513969421e-03,1.486955303698778152e-02,4.568875591397128337e-03,1.604793545412669972e-04
-1.178088039159774780e-01,6.224805116653442383e-02,1.059557870030403137e-02,-1.410409063100814819e-02,-2.771837823092937469e-02,9.521156549453735352e-03,2.460725419223308563e-02,3.219068050384521484e-03,5.682501010596752167e-03,1.426331698894500732e-02,1.637080231563662084e-03,7.476251247637317066e-04
-3.731800615787506104e-02,6.708502769470214844e-03,5.925193428993225098e-03,-4.039362072944641113e-03,-1.056409906595945358e-02,-2.393618226051330566e-02,2.493062801659107208e-02,2.195060253143310547e-03,2.175993286073207855e-03,1.426005456596612930e-02,1.593378316659018997e-03,7.791626773660774181e-04
5.698838829994201660e-01,-3.910710215568542480e-01,-7.339239865541458130e-02,-6.146356463432312012e-04,1.720350682735443115e-01,-3.241443336009979248e-01,2.848682552576065063e-02,-1.473394036293029785e-02,-1.463939808309078217e-02,1.437664497643709183e-02,2.456438456920299798e-03,6.712791423741440444e-04
1.456792354583740234e-01,-1.159164011478424072e-01,-1.511495187878608704e-02,-1.247294247150421143e-03,3.709387034177780151e-02,-1.180731803178787231e-01,2.596670389175415039e-02,-1.384794712066650391e-02,-6.019320338964462280e-03,1.427353173494338989e-02,1.694660208127547057e-03,8.115616092641715889e-04
-1.634731441736221313e-01,9.442833065986633301e-02,1.269958540797233582e-02,-2.010040730237960815e-02,-3.599474951624870300e-02,2.939993143081665039e-02,2.441783994436264038e-02,5.296051502227783203e-03,7.538304664194583893e-03,1.426982413977384567e-02,1.700159794916023762e-03,7.308601671000228978e-04
7.546947598457336426e-01,-4.920181334018707275e-01,-1.119277477264404297e-01,-2.193143218755722046e-02,2.500770092010498047e-01,-4.234701991081237793e-01,2.989290095865726471e-02,-1.187595725059509277e-02,-1.175122894346714020e-02,1.450030878186225891e-02,3.113396261226277200e-03,6.020982833488600213e-04
-1.468975394964218140e-01,8.291545510292053223e-02,1.315648481249809265e-02,-1.466225832700729370e-02,-3.279666230082511902e-02,2.648848295211791992e-02,2.443003468215465546e-02,3.617048263549804688e-03,6.896723061800003052e-03,1.426698174327611923e-02,1.672889916309614443e-03,7.382473746826315273e-04
2.778956890106201172e-01,-2.032085359096527100e-01,-2.898213639855384827e-02,8.052922785282135010e-03,7.640644162893295288e-02,-1.729829758405685425e-01,2.657237276434898376e-02,-1.015293598175048828e-02,-1.086870580911636353e-02,1.428902056068181992e-02,1.828496357709162188e-03,7.933998961349695862e-04
4.384693503379821777e-01,-3.101429641246795654e-01,-5.704547837376594543e-02,-9.486503899097442627e-03,1.239683777093887329e-01,-2.766075134277343750e-01,2.791437506675720215e-02,-3.477960824966430664e-03,-1.431065239012241364e-02,1.432408485561609268e-02,2.110436659254126372e-03,7.226765641252129099e-04
-1.800227612257003784e-01,1.063106060028076172e-01,1.394683495163917542e-02,-2.072134986519813538e-02,-3.858002647757530212e-02,3.892716765403747559e-02,2.432023547589778900e-02,5.773067474365234375e-03,8.187340572476387024e-03,1.427319832146167755e-02,1.730222798509754856e-03,7.261649504327471073e-04
1.123783886432647705e-01,-9.278970956802368164e-02,-6.274167448282241821e-03,1.175121217966079712e-02,2.933176420629024506e-02,-8.293257653713226318e-02,2.552138827741146088e-02,-5.503952503204345703e-03,-4.529308527708053589e-03,1.426959130913019180e-02,1.657889770202830614e-03,8.181784016562024643e-04
