1.486361763628953092e+01,1.396440527150528865e+01,2.479105197218742873e+01,5.162132554212713842e+01,4.913955652375396710e+01,1.234153371396212506e+01
1.464287972693344031e+01,1.546317346569317408e+01,1.474831887024738819e+01,3.802082801223421882e+01,5.455176075244742151e+01,1.301002701272342676e+01
1.462510253237798530e+01,1.409416998212751437e+01,1.863360893418458275e+01,4.722816227637201791e+01,4.563485843874061487e+01,1.058872903499041129e+01
1.426002815200832785e+01,1.396950585296681169e+01,2.410464936189591967e+01,4.494158014934851053e+01,4.657722445028416303e+01,1.197669730743250227e+01
1.538541027733055699e+01,1.429108707641897347e+01,1.896582278643948882e+01,4.207208936536210331e+01,4.889299348929304756e+01,1.296151980351918809e+01
1.445220731983454243e+01,1.463686225200782154e+01,1.984797015566678624e+01,4.953892352564598411e+01,4.493931274790947583e+01,1.357418071810413274e+01
1.483828665338555552e+01,1.472137925308781092e+01,2.174648106479204657e+01,4.626218702108403846e+01,3.927884884465035498e+01,1.217391011053927130e+01
1.449420355417794681e+01,1.548910617274857593e+01,1.493212879680269189e+01,4.878518372791777580e+01,4.396288948537708308e+01,1.167356977337877666e+01
1.477708129928318925e+01,1.457868250150159284e+01,1.684321573699290298e+01,4.866682204810219758e+01,3.960968203913202501e+01,1.166125572482531680e+01
1.500125375632815938e+01,1.374745947327626183e+01,2.126235955416789736e+01,4.775079916867947105e+01,4.387943685479883982e+01,1.251745349708256327e+01
1.505996841420298793e+01,1.543193928602552845e+01,1.817152300380617902e+01,4.429665306596793783e+01,4.304141968673051366e+01,1.125190667801994238e+01
1.468595147278371726e+01,1.432249907795650756e+01,2.066862835611476612e+01,4.369155138050147968e+01,2.987488322971337595e+01,1.433111183289040724e+01
1.510833413191554619e+01,1.567582243680317511e+01,1.933189211183835354e+01,4.273483197750339002e+01,4.923343549907713879e+01,1.499167888744455368e+01
1.483302741981799322e+01,1.456455520674958848e+01,2.010150174244407140e+01,4.809679094954584144e+01,5.032450306164771803e+01,1.083456614441534782e+01
1.397228377111913034e+01,1.451327818184514662e+01,2.071509297844082198e+01,4.297001238164409642e+01,6.530950277808491933e+01,1.209864938056398564e+01
1.448128638197463758e+01,1.596592749792305810e+01,1.761303052028659621e+01,3.945285692553262180e+01,6.137443320875480879e+01,1.169308601151795379e+01
1.390038216565637263e+01,1.415889463296032069e+01,1.566005325651373958e+01,4.760858600023323106e+01,4.129288750811812037e+01,1.118953990761844253e+01
1.522335295786829157e+01,1.437961559436624981e+01,1.933388654086820679e+01,5.536545406229101474e+01,4.255094069793411649e+01,1.418379658617798000e+01
1.498635062311103461e+01,1.389891407540056179e+01,1.878803387916240197e+01,4.752250986748416750e+01,3.525534100016474781e+01,1.443924474855826112e+01
1.483693290585262403e+01,1.503200166267287230e+01,2.193767227150481958e+01,4.919067874380142769e+01,4.893920053019343186e+01,1.518589899610100780e+01
1.458960994729098815e+01,1.459519708212572198e+01,2.635328926107508352e+01,4.709992722714993363e+01,3.824373490031139511e+01,1.504780990739614133e+01
1.450210399539963291e+01,1.399698298174727285e+01,2.742668659682286858e+01,4.648935768358333576e+01,3.842087279751990536e+01,1.491769031771671372e+01
1.342587481824291018e+01,1.434664328116732257e+01,2.010055369277467108e+01,5.031043813992322811e+01,3.789150967482498089e+01,1.449051391729811122e+01
1.429878341009089837e+01,1.444760367854753191e+01,2.493866490800365554e+01,4.762170296895026667e+01,4.876338639880756887e+01,1.536515009613176197e+01
1.384046629670005935e+01,1.621362270739613010e+01,1.535193790830702198e+01,4.447580359755138346e+01,5.765140586259853706e+01,1.425130090499275859e+01
1.376851701835884612e+01,1.521111731455734706e+01,1.987679817582935016e+01,3.955163544778749696e+01,6.280944671671316115e+01,1.513490131228070013e+01
1.475675882105636560e+01,1.424466358786115272e+01,1.709913037966295235e+01,4.190483029037245899e+01,5.251213120391153666e+01,1.542016420875914662e+01
1.445124058471615491e+01,1.427739251659714448e+01,1.759050138745205061e+01,4.064669477507265327e+01,4.612681091824688906e+01,1.142149425713752819e+01
1.448878413365802231e+01,1.413621720919297609e+01,1.804119725643421646e+01,5.139067466509356308e+01,4.006104089792799527e+01,1.162571141614252568e+01
1.395736080092457954e+01,1.487907891742631605e+01,1.675310896073859013e+01,4.570422164550328858e+01,2.885549981603288927e+01,1.231664797335795214e+01
1.463678685770837795e+01,1.444136459865183397e+01,1.590014356187736411e+01,5.286679734084034266e+01,3.843422535421704112e+01,1.168646464167591148e+01
1.445935286230198358e+01,1.486364930926251482e+01,2.278594860191835636e+01,5.018097076033875226e+01,5.252852793299373246e+01,1.339972707255480522e+01
1.487210335657827542e+01,1.433845529688761111e+01,2.338829053433980221e+01,4.689478962450585442e+01,4.969332007138596907e+01,1.546571807090393946e+01
1.608021086655024945e+01,1.380944853765163316e+01,2.312896466181281951e+01,4.548521082644136015e+01,4.347026322247420183e+01,1.504380585323865205e+01
1.459794176062319160e+01,1.477640747480143801e+01,1.507559999675006601e+01,5.079241358970091369e+01,3.228431195599661407e+01,1.433262696295384941e+01
1.543869460072661148e+01,1.476852478701907856e+01,1.743673851371462291e+01,4.554232841696155276e+01,3.396469806021760007e+01,1.449085375546815158e+01
1.520128409769326971e+01,1.448109771405974833e+01,1.970644714706500622e+01,4.488551336177732054e+01,3.931099444541685273e+01,1.520553695503558700e+01
1.167604163276702600e+01,1.405836240070855325e+01,2.252807379412555733e+01,4.307261380174779930e+01,3.642925570915375744e+01,1.500767959961848064e+01
1.251607964231172154e+01,1.480331983275300622e+01,2.451711812815731051e+01,4.761724019991640233e+01,3.990560890988483322e+01,1.510068194101440753e+01
1.101513011064303704e+01,1.478623723133283008e+01,2.158820732985754276e+01,4.029318855933586008e+01,3.118019904898021011e+01,1.437035268066242821e+01
1.523453632283265158e+01,1.410673867080414112e+01,2.397756344599233458e+01,4.727799435065082179e+01,3.300271031453524984e+01,1.495977610376986178e+01
1.502384875400880837e+01,1.525682788735571194e+01,2.169774415152594216e+01,4.249089867864763193e+01,3.227914489974111234e+01,1.509850589661409437e+01
1.456514450022064011e+01,1.530209367829126954e+01,1.713382496502737951e+01,3.655883164028365684e+01,5.781392767530178389e+01,1.482200997877275128e+01
1.464464262516290205e+01,1.584549925685802130e+01,1.892298378799713632e+01,4.522741892704549826e+01,5.868135776118838010e+01,1.430586421692196630e+01
1.477587225133091309e+01,1.461104377176577884e+01,2.038647787542537770e+01,4.377685376092058789e+01,4.817762675633449021e+01,1.514875096365289942e+01
1.441189406967439623e+01,1.549690222746587409e+01,2.189757555884491325e+01,4.615673011420261673e+01,6.395136883302651398e+01,1.473199520885770042e+01
1.450261128629626306e+01,1.584225561646701586e+01,2.073543767323732467e+01,3.932671812247342302e+01,6.735504708998004730e+01,1.571030575666857843e+01
1.550148422033509199e+01,1.525949917331200290e+01,1.664997599071442025e+01,4.047629145467705314e+01,4.584208027549330211e+01,1.370281104458681654e+01
1.387784638963493400e+01,1.454938575237306786e+01,2.300051202263754746e+01,4.928166135454751640e+01,4.286673314040933036e+01,1.417609059955502637e+01
1.272368909042201146e+01,1.351783222910117743e+01,2.442359282511354479e+01,4.000996940016398895e+01,3.593898178187225056e+01,1.539596945203808964e+01
1.193723479153817024e+01,1.455886822549617321e+01,1.921216654845603955e+01,4.105643626163383431e+01,3.817085533432209843e+01,1.468191391291113135e+01
1.140855407316474412e+01,1.410528716131533145e+01,2.327025064430368317e+01,3.618435493385953805e+01,3.229722393177607387e+01,1.460075306997759093e+01
1.209338670281512762e+01,1.538537051593216631e+01,2.098483264294493011e+01,4.601581114444722687e+01,5.555901020991175443e+01,1.493011161686558985e+01
1.087457570939950280e+01,1.418515807291170283e+01,1.838507482265668358e+01,3.871432625979468867e+01,4.319177079773483285e+01,1.130053516590267648e+01
1.306148439698923802e+01,1.448868492970707145e+01,1.546899513558416217e+01,3.832761596318823649e+01,4.598460287225557863e+01,1.070049806164955086e+01
1.139695386660212861e+01,1.575789492046658324e+01,1.766553047638490526e+01,4.134952527344889006e+01,5.122910481119259885e+01,1.229440444906331997e+01
1.149938918890227946e+01,1.398970856336033464e+01,2.369874251788118613e+01,4.326266405675228555e+01,3.675354091228057030e+01,1.294784156222738147e+01
1.295652935420332419e+01,1.456593979168257391e+01,2.351591620144741412e+01,4.349546964762040346e+01,3.895487924520232070e+01,1.292654530158187143e+01
1.256018078806330607e+01,1.534825220309373250e+01,2.013792136069768901e+01,4.092956963924471125e+01,5.144090288430558644e+01,1.227233169422734882e+01
1.061004804083223796e+01,1.374394812128986487e+01,2.465948552158427987e+01,3.939400296320527417e+01,3.722418397254614320e+01,1.199276930637398308e+01
1.144312581945074925e+01,1.393752811862679941e+01,2.221538746980705525e+01,4.245384600917526541e+01,4.235937762775731130e+01,1.088881534595167189e+01
1.090600357819100275e+01,1.362789969738495977e+01,2.458752467613317449e+01,3.587148283462764198e+01,4.458611970316429307e+01,1.207164250602516375e+01
1.149338351209770259e+01,1.551244553480206356e+01,2.486026258592050198e+01,3.810616632330265219e+01,2.784111348507356709e+01,1.180781537707015438e+01
1.192048650127520482e+01,1.517309135000485476e+01,1.477505740671063705e+01,3.723236382629067975e+01,2.785250578667795196e+01,1.184935491060479507e+01
1.173804263811863358e+01,1.434351573856057094e+01,2.035823543852631801e+01,4.002398312596677243e+01,3.783013304342374994e+01,1.076981958191782951e+01
1.244349541109820301e+01,1.473321395338377826e+01,1.907907734983968595e+01,4.651851586536903227e+01,3.494746376486271089e+01,1.089166615029150620e+01
1.237672036726753078e+01,1.311659805163414916e+01,1.533127120795837151e+01,4.639473039318387038e+01,3.084370086692819157e+01,1.156620979280423001e+01
1.249259941446193167e+01,1.405609335231941870e+01,2.275794819352731579e+01,4.771751928280832544e+01,3.956126254754903471e+01,1.234518786235750554e+01
1.178653236967431539e+01,1.330658172933140904e+01,2.286234598964719211e+01,4.350274660498838841e+01,3.733004632602002459e+01,1.141048001944124834e+01
1.186767931415264243e+01,1.414961103988665769e+01,2.442491460292501770e+01,4.611900478227887845e+01,4.095826339531969751e+01,1.289543875407341211e+01
1.235574408260197643e+01,1.407523481363552520e+01,2.350358389407711002e+01,4.747078246839704718e+01,4.449672726204425288e+01,1.145500829196097747e+01
1.249671329233597916e+01,1.519977651873708169e+01,1.730933468597549663e+01,4.191616913691105140e+01,4.252491276130201925e+01,1.168998940180910218e+01
1.111145779428757585e+01,1.495128090507536456e+01,1.491705770274738718e+01,4.082870004316372814e+01,4.593965613976298812e+01,1.249945317014537238e+01
1.196558680477158632e+01,1.528192435746785627e+01,1.690837773407473676e+01,3.848690591345618373e+01,5.351841996957510617e+01,1.170289060455028540e+01
1.461817676634380625e+01,1.549469275077994546e+01,1.555941262072646936e+01,4.254689488493649208e+01,5.937086607840201680e+01,1.163017171574466424e+01
1.413574880299496783e+01,1.551077585338126319e+01,1.480743419175524878e+01,4.092087712105131914e+01,5.602886257050330698e+01,1.188474417534703065e+01
1.343309757311174479e+01,1.409688094063963071e+01,1.688461646893703971e+01,4.743577845272328375e+01,3.556826103821148877e+01,1.081864994078604347e+01
1.404979267324108250e+01,1.491068001942402432e+01,2.129118959760595686e+01,4.715700355900769125e+01,3.770931547618191360e+01,1.213680453858100705e+01
1.443169164610192823e+01,1.422011973682928243e+01,1.870500873823626620e+01,3.694256186396612662e+01,4.668290459777135482e+01,1.137195514425034126e+01
1.421213816063238866e+01,1.406858757576335606e+01,1.534117177879154248e+01,4.924285009202012731e+01,4.120119887904856881e+01,1.096582479433403101e+01
1.426104867620675343e+01,1.473341698157445911e+01,1.409022297580795779e+01,4.653584846160215704e+01,4.257067403571762298e+01,1.126148356918177385e+01
1.440646838758629400e+01,1.471132428518908064e+01,1.903273444073694876e+01,4.611977848381167178e+01,3.499158958482864534e+01,1.122794786491832220e+01
1.423205596834817044e+01,1.591789822950375211e+01,1.522493974477557543e+01,3.539311888867178624e+01,4.982084032032925336e+01,1.122089248084981783e+01
1.392628735335613754e+01,1.416059016700176088e+01,1.895380891623289799e+01,4.098827553096504062e+01,5.281267997442282081e+01,1.215358661958840969e+01
1.469301773981100823e+01,1.351961123698897183e+01,1.970873089514732612e+01,4.611115017470287114e+01,5.515450515044780389e+01,1.202418272936491661e+01
1.412687080425014230e+01,1.567349733544732793e+01,1.912126317839946665e+01,4.394130044113524747e+01,5.666044850183980941e+01,1.165107075609703280e+01
1.462605492207038793e+01,1.379207181361324430e+01,2.238824616762348541e+01,4.891961815670299529e+01,3.791319742254633240e+01,1.125643359349475148e+01
1.387335021467352369e+01,1.441917203480646492e+01,1.826836450017575331e+01,4.515071984672050576e+01,4.157945686077341918e+01,1.115997272283009778e+01
1.434749534570026697e+01,1.436977057678248570e+01,1.824136296491590414e+01,5.045878039684289007e+01,4.518565943310299815e+01,1.178800998328640759e+01
1.467165505030531136e+01,1.446123896855358026e+01,1.688981125899563196e+01,3.992977142510113708e+01,5.216771705484296717e+01,1.369322299882717431e+01
1.411534419809408192e+01,1.602783938200428082e+01,1.787967232932410155e+01,4.431906496104307536e+01,6.030648024573319077e+01,1.192653511744123840e+01
1.472782978220926786e+01,1.600732894036235265e+01,1.651697841335901629e+01,4.513562298258447214e+01,5.564394997552700062e+01,1.208329871766576247e+01
1.530325648285981721e+01,1.565370723361528604e+01,1.425960243855920062e+01,4.010327832968899031e+01,4.196318159561780448e+01,1.144726610969340008e+01
1.472782784626340202e+01,1.573880045327247501e+01,1.825665752126182895e+01,4.231239671799558977e+01,5.575481598887599688e+01,1.160110768946608673e+01
1.523184289911946188e+01,1.432997068473137503e+01,2.257303436029408772e+01,4.445384797487170658e+01,5.261091064245307791e+01,1.093618862111754453e+01
1.430555876713867214e+01,1.468148365764180596e+01,2.159266858727401228e+01,4.804071442383558832e+01,3.462310512744240043e+01,1.124831900258446638e+01
1.365200174042817238e+01,1.450475821837362922e+01,2.418989714735915797e+01,4.206933085815678197e+01,4.426456271285225341e+01,1.310990439784763950e+01
1.419172433361509356e+01,1.490553730450442593e+01,1.842345243305948799e+01,4.306909075415158838e+01,3.701177677026853274e+01,1.265883921441435866e+01
1.441773113111555560e+01,1.399410766794837357e+01,1.853512632169203300e+01,4.715491796908010969e+01,3.138406087323003391e+01,1.270833005820579586e+01
1.441814746670771186e+01,1.403502875458427113e+01,2.162056267663836806e+01,4.412127294454317905e+01,3.137368496557369113e+01,1.289798359067375344e+01
1.445711818910336355e+01,1.432725542326559065e+01,2.961245557133591788e+01,4.987477204362905780e+01,5.692467520863316111e+01,1.294684879692418633e+01
1.422845385080015745e+01,1.468373777232465827e+01,2.113235523991006914e+01,4.696533209120520524e+01,4.074197535445830454e+01,1.099081525720335506e+01
1.484443098726293542e+01,1.352429279520156413e+01,2.248021794268665019e+01,4.750683567347860503e+01,4.173263771502069375e+01,1.108969063321987747e+01
1.544667315621047976e+01,1.453346819981413063e+01,2.167558668904148433e+01,4.477442048131997154e+01,2.970170104710337711e+01,1.316959080321778330e+01
1.384726989443674583e+01,1.456738063927258864e+01,2.203130113138885093e+01,4.863207132475000805e+01,3.371577750432868470e+01,1.317039899731588548e+01
1.409852713072254460e+01,1.475192812241611051e+01,2.052117375038291414e+01,4.859245965207900042e+01,3.536781567732136011e+01,1.210201852218851926e+01
1.389419869335551994e+01,1.418784662090612869e+01,2.237136555411569105e+01,4.849591508350422231e+01,3.784425816478159987e+01,1.285468177521904209e+01
1.431648853170554325e+01,1.403313664039446174e+01,2.082918994617375219e+01,4.744755434261239202e+01,3.264525818145123282e+01,1.204927528248553337e+01
1.450567698524522520e+01,1.432499830915051930e+01,2.332898923391648083e+01,4.546983582378022959e+01,3.386003474478753361e+01,1.248663757440367661e+01
1.516053371750782297e+01,1.405760582124175073e+01,2.348500576161817222e+01,4.642180321476867988e+01,3.644298149084676908e+01,1.193106639460109086e+01
1.405179244461106514e+01,1.594417053510267479e+01,1.584035745013623142e+01,4.228384462014626877e+01,4.316391336983667770e+01,1.280094314540458633e+01
1.493543785044473893e+01,1.512074766801905668e+01,1.934617127640100875e+01,4.373333906041746388e+01,5.198254187357604650e+01,1.168233127492238310e+01
1.473491180725860517e+01,1.455796324934889086e+01,2.375750923936536907e+01,4.931191146998687458e+01,4.823700428352055525e+01,1.184519598441143451e+01
1.492769722597160076e+01,1.447441833979375225e+01,2.360527887529709545e+01,4.463021815306134954e+01,4.130047005049269870e+01,1.261537225211218249e+01
1.401387972620426936e+01,1.537147116149416703e+01,1.512284670974840495e+01,4.812589670442149270e+01,3.321429666939003766e+01,1.384990625647225393e+01
1.438170980284403377e+01,1.536971598173681386e+01,1.759833903138223477e+01,3.964120546302641657e+01,4.285922202474610998e+01,1.189377892894731659e+01
1.475322326486741531e+01,1.524290583372940056e+01,1.794330342824878954e+01,4.024985366619041827e+01,4.851501530737418477e+01,1.148163314618971498e+01
1.536428765098121296e+01,1.398354728525845658e+01,2.062706563692539774e+01,4.463661522976603635e+01,2.897343223555825986e+01,1.213897671090617969e+01
1.410604092836453027e+01,1.441107303562362851e+01,2.170831541513973661e+01,4.323809863055391389e+01,4.099630057603921784e+01,1.257767410808122399e+01
1.359950489476118562e+01,1.481776166979479292e+01,2.182027382407950356e+01,4.495356189265532976e+01,4.386409053915192402e+01,1.283343999508471533e+01
1.386671204544516378e+01,1.370954637761134265e+01,2.360199175771236213e+01,4.363258464800438219e+01,4.709004648408510718e+01,1.218670217604041284e+01
1.467610355255536447e+01,1.401664493583733062e+01,1.708424252592558901e+01,4.372330726378058330e+01,3.656334034015901580e+01,1.233272969567427602e+01
1.411506533542914887e+01,1.445705341725518522e+01,1.793300676196669485e+01,4.310838575372805082e+01,4.450571614108823582e+01,1.242088073421325234e+01
1.405484114351690472e+01,1.494913565393718891e+01,2.120915370862459426e+01,4.784473513865436445e+01,3.285355957399472260e+01,1.143114912165308539e+01
1.383478792844688599e+01,1.359364455240397795e+01,2.265044819795180331e+01,4.566343505558076288e+01,3.427030359129059178e+01,1.281659625727126972e+01
1.465275669706397998e+01,1.438347239013588741e+01,2.291101642070780287e+01,4.933781747406316498e+01,4.053642144800082292e+01,1.205608696300505756e+01
1.548287870990986903e+01,1.388044942640732060e+01,2.067260374599442230e+01,4.667365701878733830e+01,3.603817823051256397e+01,1.197849760352956139e+01
1.515981913007983195e+01,1.488506971558120107e+01,2.090425135671031498e+01,5.022568114777304515e+01,4.231855312294260330e+01,1.204607553902843620e+01
1.471552008511072884e+01,1.441118316755693840e+01,1.608457757517484055e+01,4.037625485115586343e+01,3.860918822362622649e+01,1.060070399360101945e+01
1.453891113325131990e+01,1.395294021633794657e+01,2.177577973250139109e+01,4.971521316269788571e+01,4.277960431178019007e+01,1.135359883608657228e+01
1.474225992814199593e+01,1.386768777328809676e+01,1.577101623544957931e+01,4.601761164810358196e+01,4.419387268169968053e+01,1.268894951896451317e+01
1.498652189488043440e+01,1.562846139297980130e+01,1.823173094191211874e+01,4.336671563848467770e+01,4.901114042188736164e+01,1.163931658721574891e+01
1.555834127324434490e+01,1.450805062612365504e+01,2.257574257148904451e+01,4.918837137435214402e+01,3.526547736317937165e+01,1.253581707985939531e+01
1.424549559465502391e+01,1.466751574071547637e+01,2.569449117766545854e+01,4.654720275593378886e+01,4.393293674666914939e+01,1.283899650806566939e+01
1.486223119729999453e+01,1.399179955052807500e+01,2.150606974889599243e+01,5.015694331616142421e+01,4.331098604491575799e+01,1.193160146209650208e+01
1.402113266679935677e+01,1.430460781963966532e+01,2.018774165841415780e+01,4.737473546810444702e+01,4.448134150799482711e+01,1.077935347275738565e+01
1.467130192801269573e+01,1.434548490935288001e+01,2.146716584474697953e+01,5.021261675512782574e+01,3.558887033829478952e+01,1.249444728740543553e+01
1.391351890288040494e+01,1.392111991215493028e+01,2.637197709387322675e+01,4.350064773486047898e+01,3.685014879589234482e+01,1.271417490177468146e+01
1.572183992360798577e+01,1.447986755362732758e+01,2.012262632552988961e+01,4.685866630940512323e+01,3.503559513526442259e+01,1.228739243634553802e+01
1.504981584133925132e+01,1.364052325747506345e+01,2.499509591897586347e+01,4.387164793277126051e+01,3.561603189341308706e+01,1.297076330763203700e+01
1.541201992224338468e+01,1.412539225207290272e+01,2.375807388341477733e+01,4.558846670156666647e+01,3.863154216327003354e+01,1.279242589052942236e+01
1.476406023343007945e+01,1.383847319591991543e+01,2.425861310239341506e+01,4.697280799129198670e+01,3.472555642484558547e+01,1.343805971611146433e+01
1.451709389480894252e+01,1.378712530858954288e+01,2.164944585247374675e+01,4.976064762702372946e+01,3.720520630142712548e+01,1.219654048488837361e+01
1.459516119366540998e+01,1.396174990691823048e+01,2.196180629098990877e+01,4.562094266134786835e+01,3.214829142929158223e+01,1.210420452004445657e+01
1.524041331750446915e+01,1.416370145547412562e+01,2.154567185518954986e+01,4.613450447920279629e+01,3.052010998853361201e+01,1.180379424486098472e+01
1.338885015085853780e+01,1.423693303166466961e+01,2.167519279548420386e+01,4.376272936329306162e+01,4.279139996111014455e+01,1.163983290092311407e+01
1.433098667614567212e+01,1.319147111313245624e+01,2.220022212651987559e+01,4.136118229146304515e+01,3.686728191699289425e+01,1.223774453872434442e+01
1.378697546826275655e+01,1.411668699868111432e+01,2.311517156559691344e+01,4.397616897530457436e+01,4.086863495483521547e+01,1.152682452309276506e+01
1.439952298822837129e+01,1.453363920975122880e+01,2.006322373519198976e+01,4.343968618835643269e+01,4.964202402470512965e+01,1.211240304645825816e+01
1.470274092656747378e+01,1.342348876876445374e+01,1.925649576735670365e+01,4.047933017926572319e+01,4.068247472061668191e+01,1.273645998831344883e+01
1.514211561609626244e+01,1.447929476743797217e+01,2.095915942793371300e+01,4.893725977165403407e+01,4.411516689809830893e+01,1.218648110882178948e+01
1.449801435879787448e+01,1.388077689942081783e+01,2.117792293638432355e+01,4.420295661124632147e+01,5.432731629430420384e+01,1.175077385397002239e+01
1.502889375819134976e+01,1.461169136190535944e+01,1.473972949527113663e+01,4.586362974942431947e+01,3.674272451190586253e+01,1.191839737533932109e+01
1.421218646478105008e+01,1.479107217087007697e+01,1.822079134193315397e+01,4.637956704349450376e+01,4.837963314943706905e+01,1.246067078428805175e+01
1.462312721429035456e+01,1.363953548724747478e+01,2.132417861953487659e+01,4.939119226877740232e+01,4.478404498347720164e+01,1.046814173649581825e+01
1.512288593585045149e+01,1.428058495035231523e+01,1.625793978450568389e+01,4.857500004734712462e+01,3.380572522108149514e+01,1.096485321833453064e+01
1.418955818862636775e+01,1.442208169281820673e+01,1.700420242225147049e+01,4.458164184516446227e+01,3.669724632696243560e+01,1.092246331696081185e+01
1.467077054445236506e+01,1.491260581239813909e+01,1.623476399935542247e+01,4.486291714097129102e+01,3.286388521205874014e+01,1.170329791960942423e+01
1.554203423192094569e+01,1.424295239258520240e+01,1.835332485765754384e+01,4.355474710378081227e+01,3.149107474076630808e+01,1.196806551251179584e+01
1.467836066486936630e+01,1.417547922007538119e+01,2.079022058711443321e+01,4.720173775098134428e+01,5.095882678915953790e+01,1.179944653758070672e+01
1.474559096929668200e+01,1.433406887082568915e+01,1.894191327720285756e+01,4.301652582179699635e+01,5.591367560791513824e+01,1.200400597553403692e+01
1.392478683808358575e+01,1.471286561019304528e+01,1.725162989713273376e+01,4.403082737353247467e+01,4.358790176473259947e+01,1.257564679486237580e+01
1.409757881971798454e+01,1.442978687351806144e+01,1.824879521031230212e+01,4.953002997162658261e+01,4.390068848883728236e+01,1.176862299403570411e+01
1.483239433877758451e+01,1.477373280145391021e+01,2.087148125555061640e+01,4.988932284475760071e+01,4.339796092493632784e+01,1.253476946817335502e+01
1.477020858322467944e+01,1.501744312619929644e+01,1.591529284210979256e+01,5.040766832191754787e+01,4.256657432179323308e+01,1.166268831526901906e+01
1.405890327540222806e+01,1.496705740062262713e+01,2.142964345095645129e+01,4.874512210280222746e+01,3.606003553035530018e+01,1.395794102214722443e+01
1.419327654769456615e+01,1.366965297618471453e+01,1.565406542042662252e+01,4.756425759395354902e+01,3.969521123518882177e+01,1.113554028861196343e+01
1.447571251812528459e+01,1.338034679490369427e+01,1.900793116660814164e+01,4.865241625258912705e+01,4.218471416411009045e+01,1.143799626440075912e+01
1.510667582560633804e+01,1.496540602775060513e+01,1.990000537667627611e+01,4.686455454152051914e+01,4.189232951853967535e+01,1.263905201903367725e+01
1.429793768249805552e+01,1.404615079698247904e+01,1.945914146972960523e+01,4.906740670519656078e+01,3.657665172018023014e+01,1.230971525701602332e+01
1.466099259808064481e+01,1.431926342931173757e+01,2.192532846658034984e+01,4.455105587796651889e+01,4.023178231681464467e+01,1.178542007821979176e+01
1.402965524444529777e+01,1.464943618860949037e+01,2.121728581650758372e+01,4.855480347051295809e+01,4.257886556251496302e+01,1.237418467850870130e+01
1.465279801011967287e+01,1.430970200149356941e+01,2.226205261014085224e+01,4.457600764705004082e+01,4.912355722117787593e+01,1.268508210275964387e+01
1.534301966705780629e+01,1.408616629667518616e+01,1.807727126603278833e+01,5.146850542393097783e+01,4.806690630894456717e+01,1.077504567436943184e+01
1.484067189806784626e+01,1.425729249737025661e+01,1.841229626861401414e+01,4.596269796388435225e+01,3.771176057805128323e+01,1.253067369658709218e+01
1.412379998258104052e+01,1.410340419759160113e+01,1.585536299852817876e+01,4.226782287830597085e+01,3.882548694717162618e+01,1.173122022387697427e+01
1.432318880834466057e+01,1.433923613701128552e+01,1.729741600700351967e+01,4.851017219354042709e+01,4.774010879934910889e+01,1.096512775829474862e+01
1.393837338605770171e+01,1.414120372996000086e+01,2.146751799428204066e+01,4.654836586145575694e+01,3.733205107894438868e+01,1.498187661288912587e+01
1.404441680650513291e+01,1.447941453221371333e+01,2.168140215164780216e+01,4.831891798497115786e+01,3.046294402880891994e+01,1.472367767358671564e+01
1.471867448602489681e+01,1.336858647513430576e+01,2.309719210633653574e+01,4.511454637098618292e+01,3.087615159551881661e+01,1.570500991031800986e+01
1.459482533382682945e+01,1.417607014029245427e+01,2.647288672580438629e+01,4.705697066856166799e+01,4.942534699712942370e+01,1.512076331484823655e+01
1.517659574379048415e+01,1.375552481143428096e+01,2.545370209205646717e+01,4.176259857682377685e+01,4.701404141055214581e+01,1.588080860466294020e+01
1.258845817866391492e+01,1.383115566764421978e+01,2.090359618667624630e+01,3.917815822421200522e+01,3.374416536093243479e+01,1.434231152948159860e+01
1.122948179206293062e+01,1.499704948702728302e+01,2.132263866609473624e+01,3.884220695146711222e+01,5.628107855730337405e+01,1.509376950565790665e+01
1.172072829868783828e+01,1.392396135872170504e+01,1.640016025956561307e+01,3.563505023850514419e+01,3.858066617903145357e+01,1.462514685768571709e+01
1.223894078843827415e+01,1.580439375045785688e+01,1.839294760067852508e+01,3.441990190114997006e+01,5.513681325704450842e+01,1.495335379505658402e+01
1.245540269561969104e+01,1.438064492569423081e+01,1.664420283290959190e+01,4.309198904019442011e+01,4.180375545578141327e+01,1.409812424368348616e+01
1.457166445563306567e+01,1.462243038447260801e+01,2.129155166164649415e+01,4.089436048786377853e+01,5.687278990819896762e+01,1.417631373267255412e+01
1.330948684809707139e+01,1.498740786558218296e+01,2.074221015466186913e+01,4.255510837159408766e+01,5.103341810561932590e+01,1.491292105664363454e+01
1.472712988757507091e+01,1.459924398514641553e+01,2.059592477606332039e+01,4.761513382134444328e+01,3.968316102024328984e+01,1.386762705962313902e+01
1.481159085736007697e+01,1.451750959276580666e+01,2.009802386327994839e+01,4.357549413302184860e+01,3.384650315794993958e+01,1.524419630029766282e+01
1.449085986796130321e+01,1.411218316386954541e+01,2.687490419577066092e+01,4.565150336462784963e+01,3.550432222662742276e+01,1.420909787540548308e+01
1.426494364525018987e+01,1.460150607304566250e+01,2.254288173882650881e+01,4.818485772389075805e+01,3.344285010007677528e+01,1.501938922939502064e+01
1.466049495516865164e+01,1.399429805386312609e+01,2.179578934146400826e+01,4.894725747492363865e+01,3.183196822898969813e+01,1.483672943121355559e+01
1.532326637217701659e+01,1.370181704659201394e+01,2.225278796807495496e+01,4.782520187075660090e+01,3.933489089614006673e+01,1.459728450296215385e+01
1.469758984161042292e+01,1.365831476084104601e+01,2.520671349298799058e+01,4.327537117997243854e+01,3.884031511603762965e+01,1.489199951953780321e+01
1.470296185374447617e+01,1.417771853638699575e+01,2.580424606412975308e+01,4.385777332167936038e+01,4.220313324784188325e+01,1.452751508237403399e+01
1.415651909842043921e+01,1.460356824644823703e+01,2.344383448228845523e+01,5.134500148531476071e+01,4.892354585985453497e+01,1.505438049205032236e+01
1.460469157373683657e+01,1.464499011112213189e+01,2.264376160112849590e+01,4.905692040053157399e+01,3.785077507628214022e+01,1.523843185959836077e+01
1.590874794013976867e+01,1.439220224998239495e+01,1.656337942491600401e+01,5.192161691899546838e+01,3.103462315838032026e+01,1.461943228589054833e+01
1.430645988501590082e+01,1.357704841114615313e+01,2.929913986672506354e+01,4.504353301163736489e+01,4.119875557386387754e+01,1.535492189125472606e+01
1.480101953301850415e+01,1.529731264671725732e+01,2.472832323264561083e+01,4.923018685812709094e+01,4.063316860787553964e+01,1.498380314069224539e+01
1.495927081843365869e+01,1.441511620065914911e+01,2.748413602865342398e+01,4.838885448528823474e+01,3.910775826011275313e+01,1.525464492677665973e+01
1.493784599270266256e+01,1.397466634356901949e+01,2.666103105743368573e+01,4.454088839470762906e+01,3.892996717864080836e+01,1.529154225946488843e+01
1.495307563452923993e+01,1.415461560288827236e+01,2.190242365615201692e+01,5.165567913953115209e+01,3.563282223455928488e+01,1.482843087714127250e+01
1.444516013581877267e+01,1.471112799913715818e+01,1.791936428538349446e+01,4.519048280714815746e+01,4.539925678202057924e+01,1.402865792343007456e+01
1.518935541158093727e+01,1.423966353609375091e+01,2.367584156664560879e+01,5.193136139701575615e+01,3.979615716804048731e+01,1.454835036612378119e+01
1.237607228952327354e+01,1.572003929965089952e+01,1.661905368227284541e+01,3.935587601051149420e+01,3.953046440905975345e+01,1.527425959035187830e+01
1.058421589507356941e+01,1.516579249871577062e+01,1.673897870439106228e+01,3.640182165869617137e+01,4.722359851765787653e+01,1.480899943410518560e+01
1.427392584781878249e+01,1.431842758369932866e+01,2.341008833082106122e+01,3.971230909883191629e+01,3.806923635901988234e+01,1.456222032043456771e+01
1.287422344660443052e+01,1.404877301833736958e+01,2.073094505935183562e+01,4.538815745773760568e+01,3.322899109655766381e+01,1.534081469175901802e+01
1.205344357491119034e+01,1.357850298345301354e+01,2.138016388618935437e+01,3.709358091869361118e+01,3.716210802819755799e+01,1.499690140830754537e+01
1.141276263990910245e+01,1.423645065924953812e+01,2.244544127981426129e+01,4.169175265424136256e+01,3.427735833372890539e+01,1.418766152267097524e+01
1.299611014363382466e+01,1.459536706556551877e+01,1.796858141767530981e+01,4.723580728716858346e+01,3.034956573319582418e+01,1.514689984248148846e+01
1.190816444917174977e+01,1.421117200368270872e+01,2.468354837296589466e+01,4.324707824792191246e+01,3.433683668082616691e+01,1.505988157863311550e+01
1.095090844305184419e+01,1.487551867843911779e+01,1.852990826788160561e+01,4.474613576269849347e+01,3.099032565359671310e+01,1.459846926755562535e+01
1.142904079812905671e+01,1.431725659783313453e+01,2.527257511367477960e+01,4.608470210881356621e+01,4.123282924520616888e+01,1.460676318171029209e+01
1.489077057218098155e+01,1.467595454233605601e+01,2.078857944388559886e+01,4.937286902204346006e+01,4.838847253586916963e+01,1.533580761312516749e+01
1.537806500796039089e+01,1.462572357837941617e+01,2.618059212859040130e+01,4.653708857000065535e+01,3.836784627422009208e+01,1.480004224007973512e+01
1.384736329165608026e+01,1.447551927731948318e+01,2.506677521815015197e+01,4.389851134315021852e+01,3.940909290733132053e+01,1.501606680176145936e+01
1.514880619192731004e+01,1.376239727934382984e+01,2.466553539929324401e+01,5.231353187727286524e+01,4.966908816672817295e+01,1.486770720300691018e+01
1.342912697089674623e+01,1.417846973087883811e+01,2.068974805798633909e+01,4.797883800931357712e+01,3.537774043678130909e+01,1.425038212892383171e+01
1.406666043799059729e+01,1.539472208897434946e+01,2.304850284393493354e+01,4.474504071630575197e+01,3.090652405946327619e+01,1.382708745485990498e+01
1.388634990275477499e+01,1.396436643983781067e+01,2.454512514834717152e+01,4.484592284697316700e+01,3.366785859052794194e+01,1.502580121435669369e+01
1.390719437243731349e+01,1.392910446777801070e+01,2.439574854397629622e+01,4.795903940901177975e+01,3.731757546036617867e+01,1.462466359554845674e+01
1.498890058944320103e+01,1.392785628778546148e+01,2.811939939027994129e+01,4.593029082883532510e+01,4.259766182134719514e+01,1.494898217343371272e+01
1.507498694088783431e+01,1.336245413915955460e+01,2.367064190853298555e+01,4.879849999026969698e+01,4.886420038296108004e+01,1.432633256189959781e+01
1.357095884156860244e+01,1.484923074969306711e+01,1.736984310551175881e+01,4.578182204341758421e+01,4.005131012126427947e+01,1.447634665815358446e+01
1.438094634868704524e+01,1.470928219094317768e+01,1.514680232689124395e+01,4.471205006193947895e+01,3.949983776067504238e+01,1.469675587784739434e+01
1.494174197857903685e+01,1.484656095245502172e+01,1.913979671908742120e+01,4.560273062636859009e+01,2.798321618259159038e+01,1.401025308667614944e+01
1.468989459002457387e+01,1.411325010925280310e+01,1.929325261875327868e+01,5.094446531514253707e+01,3.341185117645511582e+01,1.471220067582828861e+01
1.526970356702560494e+01,1.381357939445560667e+01,1.988592049067835887e+01,4.985495253358300971e+01,4.811688820787634313e+01,1.100872979337697188e+01
1.624918307784750127e+01,1.344657780054831520e+01,2.266721746743473886e+01,4.725281694248534592e+01,4.432037399939946454e+01,1.304505084929399672e+01
1.457000678422927997e+01,1.405497867178205418e+01,1.701105547632316828e+01,4.650819918756157989e+01,4.334140237403159546e+01,1.088750731811184025e+01
1.478619711046551188e+01,1.401768193989074618e+01,2.266755455555849963e+01,4.549318320947367056e+01,3.909430625321443387e+01,1.182286703235756420e+01
1.428427092080110050e+01,1.453340519278298792e+01,2.181134166156218157e+01,4.964133567481115961e+01,3.995998323468722901e+01,1.274772894389357702e+01
1.512817944680175231e+01,1.380156764857327190e+01,1.911702357308661604e+01,4.572233999277433014e+01,3.670237369379004377e+01,1.190739811198809583e+01
1.532300776161451594e+01,1.408237600198284412e+01,1.667305501256471700e+01,5.123363993358762514e+01,3.616767829068935924e+01,1.207323900621640078e+01
1.374134349534985589e+01,1.544188208994392397e+01,1.509207769381286468e+01,4.318160290021310743e+01,5.371049860438684220e+01,1.434972326494182759e+01
1.510782952007584257e+01,1.376417085619321590e+01,2.400056122099804057e+01,4.782727701465617542e+01,4.074166798556777280e+01,1.509619556541166929e+01
1.436733263623006707e+01,1.365047212986081782e+01,2.217480622408751145e+01,4.930768216133525783e+01,3.626055399755609443e+01,1.550216563372187650e+01
1.517985954732364817e+01,1.453030164911727695e+01,2.021753686132977279e+01,4.272443650820777350e+01,3.499434485697441488e+01,1.486826663779180535e+01
1.400911239763594551e+01,1.391944557772376712e+01,2.350825252194838555e+01,4.223219940624521485e+01,3.815296566105315890e+01,1.528801394886978393e+01
1.055498802638054201e+01,1.385516505315798774e+01,2.614355737312049399e+01,4.038254596468591728e+01,4.646655837696235380e+01,1.474480755443991775e+01
1.235192008628846239e+01,1.407753577447666515e+01,2.301635614414524866e+01,4.501062731743411405e+01,4.225676945886292657e+01,1.512559397161380303e+01
1.240740291054921585e+01,1.464183472480096526e+01,2.302887736719274159e+01,3.895187221037328129e+01,3.113779606031516067e+01,1.568829408164172179e+01
1.172647224620142836e+01,1.415819769660422800e+01,2.403850205560027931e+01,3.880815396541439810e+01,4.117404990332745740e+01,1.524958166955255301e+01
1.165835277830518457e+01,1.432097005462825301e+01,2.436433090024301507e+01,4.045247279729171197e+01,4.272338005376111170e+01,1.479622894887130968e+01
1.241220163719038361e+01,1.457802863396737614e+01,2.197209696315853833e+01,3.970937523327147289e+01,4.096829034739433695e+01,1.548580989080527459e+01
1.320837784771105206e+01,1.441456759896516182e+01,2.225797683190520715e+01,4.428092139071770816e+01,4.387063322199038140e+01,1.565859885946470165e+01
1.229262206868878060e+01,1.297387212805597123e+01,2.400000754297680672e+01,3.949466700100869332e+01,4.156596274739734298e+01,1.203890763290731059e+01
1.227188332210297261e+01,1.490573824230149924e+01,2.539008385016414948e+01,4.527178869299750374e+01,4.233308417682077618e+01,1.282572410705481403e+01
1.194707879390179883e+01,1.396245433799133551e+01,2.497869199587658784e+01,4.229245030270548966e+01,3.784234721776256549e+01,1.385438819354586926e+01
1.446461046255093308e+01,1.400671068621163151e+01,2.387318802164190501e+01,4.341097813025932339e+01,5.031257150080486440e+01,1.206359901725659434e+01
1.439728395862823440e+01,1.403594295595870278e+01,2.607117999780901485e+01,5.164191166958272561e+01,4.926405067981401942e+01,1.278493026630020246e+01
1.354766968938177563e+01,1.425769190617996074e+01,1.979424513224547155e+01,4.686519622145506503e+01,3.180823493905991839e+01,1.178007439961352709e+01
1.429842510824360602e+01,1.338396608442709734e+01,2.253958373100988766e+01,5.090155810176309359e+01,4.665196986559436709e+01,1.224869836885232033e+01
1.537765239034597187e+01,1.512275554098435926e+01,2.012935187631673273e+01,4.249940416354886707e+01,5.292115835649476452e+01,1.189407884787141967e+01
1.504555213893319809e+01,1.432308910100377730e+01,2.049337768974597651e+01,4.324080577165948824e+01,3.891673831200635902e+01,1.190730837673893738e+01
1.503053434705596558e+01,1.411262474239388887e+01,1.985561905549578299e+01,5.013433135339496971e+01,4.271477817369608942e+01,1.203882753995970312e+01
1.422602976753578474e+01,1.394883838462006587e+01,2.493346503390111835e+01,4.603784045668305680e+01,6.016465052385319012e+01,1.195958259517676225e+01
1.397461174503034442e+01,1.379131624026200242e+01,1.742685151377822805e+01,4.424067276276809224e+01,4.108250534062834447e+01,1.163431040615351719e+01
1.572622822674983034e+01,1.434535467049740021e+01,1.883189702666614096e+01,4.643536829948112654e+01,3.791918663716668192e+01,1.202069877806375686e+01
1.471855344119843423e+01,1.442645290244928802e+01,2.265078666294532894e+01,4.865194417486490863e+01,5.694167839337804082e+01,1.211941862264694514e+01
1.429090227948330494e+01,1.433232932928083869e+01,1.766255604720285888e+01,4.965573444227054267e+01,4.221900559234995143e+01,1.143373675785025512e+01
1.515531668626821471e+01,1.547575329689087908e+01,1.514212060277992933e+01,4.355216498852890084e+01,3.630963963071960166e+01,1.190530076854603792e+01
1.516913289557322919e+01,1.435098247245823089e+01,2.270848240254024830e+01,5.057533613303973397e+01,4.000766192376779884e+01,1.308512659417782587e+01
1.468459806621060082e+01,1.447037694986025080e+01,1.585936020555975468e+01,4.772372678356107656e+01,3.070921587138023412e+01,1.179945536738658163e+01
1.447871260344746958e+01,1.520815275453052351e+01,2.091315432873006941e+01,5.125244977715661321e+01,4.432712582874627572e+01,1.219335570205267061e+01
1.502972163913971571e+01,1.390915655800841932e+01,2.523244229137244332e+01,5.084494924293911566e+01,4.688839515597309315e+01,1.299860385896269932e+01
1.522969417737839493e+01,1.418717216950234672e+01,2.251682743984031276e+01,5.275465875128404036e+01,4.913205237469487940e+01,1.265893104934119151e+01
1.456341383594410033e+01,1.439540867146258840e+01,1.651542180918871594e+01,4.462560958917987364e+01,3.928076521919289377e+01,1.153853792050533400e+01
1.412975737737498960e+01,1.510425187811771330e+01,1.777632918759395864e+01,4.426333224885046036e+01,4.125572152747001553e+01,1.268436445241928112e+01
1.411384344762334564e+01,1.340550188050478653e+01,1.939852053600331772e+01,4.960477746876167515e+01,3.710158926736406926e+01,1.193200676207290556e+01
1.446238442723667106e+01,1.445092672041103654e+01,1.686008556043585216e+01,4.793955433454358683e+01,3.436176203226828108e+01,1.096330659248383199e+01
1.461940198028744042e+01,1.458535612395624170e+01,1.529192611680237590e+01,4.553457750445112140e+01,3.538735553237834353e+01,1.173677339079373816e+01
1.435411822603691512e+01,1.487219155268950033e+01,1.901768252533046777e+01,4.372106385647864357e+01,4.100161167221794756e+01,1.115367321640620446e+01
1.423753859328589932e+01,1.426789857287051611e+01,2.024772515749229029e+01,4.712451006727590652e+01,5.146758820806832802e+01,1.228423322216312918e+01
1.357491465239718842e+01,1.396861066008058927e+01,1.897713581145313455e+01,4.943270107687691706e+01,3.909305470304681762e+01,1.293707810867348584e+01
1.488932868382912034e+01,1.463786511246482291e+01,1.901698889531265024e+01,4.212819828250523813e+01,4.719265309191857938e+01,1.162185221321556838e+01
1.510854477680408614e+01,1.439568843384909513e+01,1.993449737374336195e+01,4.947787068249106568e+01,4.868645535600646213e+01,1.198066490310444365e+01
1.493510373909468392e+01,1.339028250177457480e+01,2.075873232409328395e+01,4.275628945239713374e+01,4.256799353602519886e+01,1.231726725328076277e+01
1.472045935816596796e+01,1.460027350603770202e+01,2.207940664406975628e+01,4.698736761680262219e+01,3.352151263367129275e+01,1.092611209053276156e+01
1.494053129539804026e+01,1.386030698495580182e+01,2.349312594839589607e+01,4.803601100039409033e+01,3.611424896832598108e+01,1.207537876764171969e+01
1.414458932814845404e+01,1.544323177347678033e+01,2.273355627417447167e+01,4.392144389422634987e+01,3.332275229945642536e+01,1.263175601721201602e+01
1.525120850990509069e+01,1.514249512553906030e+01,1.653507236021606985e+01,4.606858571062042529e+01,4.777707312801742034e+01,1.180617176741440844e+01
1.496959928389362737e+01,1.520335468811133595e+01,1.746557441671197708e+01,4.174046601714520222e+01,3.108927711746563816e+01,1.228908945768154126e+01
1.435381819000441084e+01,1.398260704101476293e+01,2.312428428267066138e+01,4.626322348679119045e+01,3.646539217409109312e+01,1.199006427937199604e+01
1.420929354981890036e+01,1.443724578253272206e+01,2.409565313618818294e+01,4.576840894333767551e+01,4.659792083463268142e+01,1.487368014504737168e+01
1.508757849066769907e+01,1.447990092737549261e+01,2.406854329800586711e+01,4.972621169938494745e+01,3.539822450947000476e+01,1.517057866583521353e+01
1.464905515868477437e+01,1.507280449466038874e+01,2.231531469085042474e+01,4.957077191796562232e+01,5.231778685885959845e+01,1.473549966340607575e+01
1.447342564359494332e+01,1.373464618650634073e+01,1.925733761786023734e+01,4.786850592446784702e+01,4.712232800062285776e+01,1.479116504122050912e+01
1.483931050337017865e+01,1.394363581551400344e+01,2.148258876755107494e+01,4.625668242977450717e+01,2.848468843579951937e+01,1.517836213897125575e+01
1.504182798332459470e+01,1.435056979392095400e+01,1.811913926538006336e+01,4.457071448534073710e+01,3.372440022369741541e+01,1.486553894930715636e+01
1.370836905776672943e+01,1.417588156164916668e+01,2.189311826745485234e+01,4.790213227636394322e+01,3.695119800774842389e+01,1.572436272469261453e+01
1.495869950616313560e+01,1.485960777253612974e+01,2.453136843762212038e+01,5.274362024996928255e+01,4.601119162569516163e+01,1.484374456051573432e+01
1.469360587292178089e+01,1.462273796807954263e+01,1.991837157140331982e+01,4.963359107690084215e+01,3.450353375385403609e+01,1.440651883605720407e+01
1.413699751111165881e+01,1.598144842635252338e+01,1.734815249746608856e+01,4.316053269033763229e+01,5.717082789498635975e+01,1.521657886996189646e+01
1.493423281082772647e+01,1.430916644990301023e+01,2.105543620359398815e+01,4.737524550912557686e+01,3.841329664947175360e+01,1.393926170530011888e+01
1.537384264413667978e+01,1.411257209221768072e+01,2.088216401299151670e+01,5.378643192851318133e+01,4.109459915665057395e+01,1.466614199394986429e+01
1.445802353300208942e+01,1.347787044841294346e+01,2.241148129893590735e+01,4.582141321585253735e+01,3.879728383985462870e+01,1.408332494980881577e+01
1.443622971594487048e+01,1.403706417535626727e+01,1.752761497187218964e+01,4.984313043907620511e+01,4.210726682275041100e+01,1.503002917602865374e+01
1.503679959963272950e+01,1.383443350930971860e+01,2.200131629906622166e+01,4.657291570235996403e+01,4.285640058942611574e+01,1.405331339415792336e+01
1.520375433028311463e+01,1.521239759883458653e+01,2.016338307047557876e+01,3.940542142665233882e+01,4.298415993674811375e+01,1.477142549763101975e+01
1.414325707800100496e+01,1.519097588004927957e+01,1.775774941661804363e+01,4.570400329094659497e+01,4.545368744355114643e+01,1.442830428902262341e+01
1.458987560958163954e+01,1.529120695479923775e+01,1.875996217011521594e+01,4.458697230866734884e+01,5.086161632965308854e+01,1.505131577812443133e+01
1.465483146006513948e+01,1.471004569863560008e+01,1.912766230408028889e+01,3.575240415722991827e+01,5.259377088056950100e+01,1.405055128782766083e+01
1.430264637179757869e+01,1.463428671167650919e+01,2.116814565539775828e+01,3.949015572208189440e+01,3.900382472743601170e+01,1.484552877586156150e+01
1.397776015999983557e+01,1.392900418269104890e+01,2.130397739237102428e+01,4.568405460244019878e+01,4.087910894922045912e+01,1.438799947787627787e+01
1.482193815674264137e+01,1.450455835735652954e+01,2.430091400014979541e+01,4.163173999990083729e+01,4.803366116030412059e+01,1.524440430100777100e+01
1.450417387149250104e+01,1.482075749545289334e+01,1.795589405678549255e+01,4.542272480723150352e+01,4.193539347616528090e+01,1.382962196668031929e+01
1.481638193884048604e+01,1.518064555887973555e+01,1.750558049713234965e+01,4.889510458151910655e+01,2.686208807351706795e+01,1.454750044816466215e+01
1.438388289090213412e+01,1.513120009270928179e+01,1.886487196772625907e+01,4.782144943271778459e+01,2.927896761702238138e+01,1.431703393274039726e+01
1.462673847322914966e+01,1.491916416532764700e+01,1.911627970364790485e+01,4.635550018767271041e+01,3.847739225128324136e+01,1.442291019127772600e+01
1.480162416545151594e+01,1.424968698992138272e+01,1.597749580939350444e+01,4.512893859756627535e+01,4.219989586239628920e+01,1.366867001839205287e+01
1.417567519719011493e+01,1.434935838269067077e+01,1.891513262782103411e+01,4.680110592192963281e+01,3.265986296362235919e+01,1.372904961054045003e+01
1.416324416317365298e+01,1.471160781003674245e+01,2.457734007166369139e+01,4.587910635807783422e+01,3.296108651784525279e+01,1.500066260032754073e+01
1.491105837646521337e+01,1.621477238191365444e+01,1.562182231895778095e+01,4.472892366176127865e+01,4.694400377843054173e+01,1.509673892841738052e+01
1.499046661703335026e+01,1.509421185042595859e+01,2.042339570948913163e+01,4.090525109540499216e+01,5.575744434055616239e+01,1.566205055912342736e+01
1.445621864422728109e+01,1.513593991691048757e+01,2.310799912893273245e+01,3.884738408945715804e+01,6.512680152170467807e+01,1.476556597502234602e+01
1.457779373536386380e+01,1.564751650504195268e+01,1.499216089946547648e+01,3.860696216818433157e+01,5.560148346823285692e+01,1.492653132618966261e+01
1.425305100615816123e+01,1.556616239517930644e+01,1.650818177145968590e+01,4.734643198106297746e+01,5.094600595906496920e+01,1.492021863026445594e+01
1.506721077803904585e+01,1.573924952971072244e+01,1.765176255825161178e+01,4.204866596352493957e+01,5.763404535204080759e+01,1.471293174894547207e+01
1.455875652411887344e+01,1.580410044750257370e+01,1.623551873670403722e+01,4.140220308857007581e+01,6.094739648550205402e+01,1.481555079537154285e+01
1.487761015482709759e+01,1.465050233788621625e+01,1.897828203940298408e+01,4.714096173512862009e+01,5.814171796842111206e+01,1.427908124928712574e+01
1.499067800102007197e+01,1.425747848428348874e+01,2.700242348537646819e+01,4.532157946411294347e+01,4.993855318267878118e+01,1.524946908764870912e+01
1.495962873862954368e+01,1.477749903496884265e+01,2.666192343109209872e+01,4.372077101656452669e+01,4.222576547049906992e+01,1.489181139166876022e+01
1.503025260606641744e+01,1.553085451090698754e+01,1.436350385036031341e+01,4.700314878307096933e+01,3.807320586806216056e+01,1.539016687856542021e+01
1.368470150927864992e+01,1.397576758777997519e+01,2.260089605680673586e+01,4.536133163987647521e+01,3.753052067208174947e+01,1.439152660687615892e+01
1.316712454250412989e+01,1.457259278958226112e+01,2.060730524305274258e+01,4.506231456923326562e+01,3.817610069849452259e+01,1.582021339595459608e+01
1.182966326167314541e+01,1.526925467286646843e+01,1.450661156051026168e+01,4.194799039369811311e+01,2.628123361911663380e+01,1.508006142149113238e+01
1.228012446617758080e+01,1.602555170914732585e+01,1.583404491009449444e+01,3.534878082496121010e+01,5.043597154886998624e+01,1.484756007652768872e+01
1.276682040849720678e+01,1.409766165102553970e+01,2.683393864846635779e+01,4.482520856140980925e+01,5.323134223938966159e+01,1.477280438947668273e+01
1.183034892916490399e+01,1.511202032652751903e+01,2.040653126800963335e+01,4.027307319736199531e+01,5.012504613284369270e+01,1.520398008195908801e+01
1.136731157002744297e+01,1.448207886241434572e+01,2.294672459597788006e+01,4.261667128474860533e+01,4.991883945105288944e+01,1.441840795897877747e+01
1.186578381353390377e+01,1.369103811719525510e+01,2.429910508019519710e+01,3.975432999035250248e+01,4.200680680625731611e+01,1.449444200795963233e+01
1.224755042290583873e+01,1.455476921052502881e+01,2.159207359200152965e+01,4.178044646437470533e+01,4.342752696545191782e+01,1.483397957033553993e+01
1.113800796786056502e+01,1.473382836409522767e+01,2.546225553637330208e+01,4.287394120024642774e+01,4.544849495586103671e+01,1.537601909826030600e+01
1.117671645255186164e+01,1.447782364392188903e+01,1.991152100237020051e+01,3.758934364373239134e+01,4.100596822928812912e+01,1.462422550523189102e+01
1.195724838486736097e+01,1.403413299629853661e+01,2.593058548207613612e+01,4.649789363894652183e+01,4.715233668043728699e+01,1.457498757499991271e+01
1.131280099550780527e+01,1.450370192365527267e+01,2.188885752912878147e+01,3.570850632205799968e+01,4.780583006517304057e+01,1.451596715399542248e+01
1.245326795609710935e+01,1.415544289495176322e+01,2.385676507552074810e+01,3.614123575008478895e+01,3.258630539151106831e+01,1.357099489695618288e+01
1.186557731015141215e+01,1.419974285163560346e+01,2.080916844551736844e+01,3.568706524968602878e+01,3.721995370804086178e+01,1.526827210293946457e+01
1.510036076156348628e+01,1.410647323984752788e+01,2.478253133075050485e+01,4.378828166488591478e+01,4.248226983643124299e+01,1.471397317190547582e+01
1.435735428984340700e+01,1.512662840670668274e+01,2.037546163074772920e+01,4.991615980170126932e+01,3.630435504044160666e+01,1.456240924536498227e+01
1.443841857448429167e+01,1.428760287745256896e+01,2.074099713652367427e+01,4.687331956934453103e+01,3.420819710869043462e+01,1.476072809000120500e+01
1.495519817040707267e+01,1.370304363920260826e+01,1.818877293874533407e+01,5.077814363258693220e+01,3.456066747919356885e+01,1.437739465720284393e+01
1.385642430106821088e+01,1.501060636937577542e+01,1.773286637212813943e+01,4.772812915170045756e+01,2.978267750584858931e+01,1.548340962464099491e+01
1.538746621159598682e+01,1.565501067724843942e+01,1.665996077358406779e+01,4.612627286532416804e+01,6.149744494439575959e+01,1.521383554324227205e+01
1.510089181397431446e+01,1.469206262740343050e+01,1.960793602853978257e+01,5.057204959161617808e+01,4.422051156692801754e+01,1.546680930060557380e+01
1.529749437207300389e+01,1.530048013629447645e+01,1.470727872855523088e+01,3.792857714555538706e+01,4.321244816390642995e+01,1.449907962986336329e+01
1.457824698677798558e+01,1.529973689268622650e+01,2.055403543825264734e+01,4.332743272207556373e+01,6.389021015893387556e+01,1.509328936065918469e+01
1.512322973892696787e+01,1.457803982344790406e+01,2.378992990083710168e+01,4.389500375598849757e+01,3.154042443255540817e+01,1.469904865560592100e+01
1.486537226530124478e+01,1.554813867737377109e+01,1.506933751206867456e+01,4.046676709804696515e+01,4.218728147069573708e+01,1.408305209910652245e+01
1.478423473517710640e+01,1.507512087858245486e+01,2.060854338467381197e+01,4.053510488393183664e+01,4.421567697764764659e+01,1.565095195929649918e+01
1.536042126585168432e+01,1.409344759746052311e+01,2.260268316875335515e+01,4.780082001320255358e+01,3.965494326580066087e+01,1.480167193386678548e+01
1.420480508863867009e+01,1.460888805365257603e+01,2.073319909977288233e+01,4.775149926058522709e+01,3.880846770568486193e+01,1.450471492374401450e+01
1.522760611504583217e+01,1.392989667582683566e+01,2.140219441954485191e+01,4.817471086668757607e+01,3.515734776302956277e+01,1.468077899000856412e+01
1.501811696214295466e+01,1.475750995033890867e+01,2.500772026233234868e+01,4.645083245106924608e+01,3.181260675422769424e+01,1.427764246096233336e+01
1.510717244773837820e+01,1.490561141688956326e+01,1.942644665920779090e+01,4.625499559038217967e+01,3.744868877270497620e+01,1.467302722222760103e+01
1.532874705096844359e+01,1.371775416282703119e+01,1.794631585783612238e+01,4.667271913937980798e+01,3.506500009410731877e+01,1.256916529224928958e+01
1.470296930159057958e+01,1.366567301507718390e+01,1.772247512985215678e+01,4.603886112535309394e+01,3.789245859837419061e+01,1.189579241708345947e+01
1.457699318334451988e+01,1.357478529720155258e+01,2.046801726790737419e+01,4.755615102804821959e+01,3.537471863725968291e+01,1.141886096305298537e+01
1.450767490692651407e+01,1.476382925734513307e+01,1.841164008693362319e+01,4.814831391035998109e+01,3.020323159032026084e+01,1.202504284169031834e+01
1.451088099932684727e+01,1.479972320687180876e+01,2.038600487610137080e+01,4.276262122214389194e+01,2.754598353584592729e+01,1.226225013619227866e+01
1.435962486688812589e+01,1.475725179654576991e+01,2.157024363595414584e+01,4.406404846924878882e+01,4.202587752137860377e+01,1.174954507758335254e+01
1.469587294999872995e+01,1.519187298111189044e+01,2.410303537374619509e+01,4.779259797929020692e+01,4.446241171216114196e+01,1.238550287689113460e+01
1.395792387379773913e+01,1.392675552914297654e+01,2.061789758040525555e+01,4.562094009263534389e+01,3.042329165571798555e+01,1.160213375261458069e+01
1.420433228989493202e+01,1.318937188192356658e+01,2.438991183773292093e+01,4.699619791521153900e+01,3.990108168058414151e+01,1.230257913626381594e+01
1.457899518750235757e+01,1.432247558175147262e+01,2.300380702557516344e+01,4.637771009331983407e+01,3.490111235498501685e+01,1.254037967928990760e+01
1.460012820754160856e+01,1.439493710025334927e+01,2.391798619830973038e+01,4.329024061745808893e+01,4.051290780699753213e+01,1.552355062456982893e+01
1.478160301357521966e+01,1.369594341958413253e+01,2.438421536843614845e+01,4.624878201336399997e+01,4.043542432751301874e+01,1.447846555923112355e+01
1.402338290407812949e+01,1.347529927352952939e+01,2.219080278944478124e+01,4.402095591557326770e+01,3.293688881601254081e+01,1.601824002986906237e+01
1.522359557348173098e+01,1.451543964641255791e+01,2.183427709271041550e+01,4.446069245001086045e+01,3.936163236789904118e+01,1.508952119482224852e+01
1.385636884428578597e+01,1.477331635112111563e+01,2.500277840747669700e+01,4.605466934252524425e+01,5.295461277385587806e+01,1.497877341112632976e+01
1.468924699961330127e+01,1.386403695461251218e+01,2.155718272635453303e+01,5.163241146627855471e+01,3.750205793288777301e+01,1.457545869876703293e+01
1.465952652508337906e+01,1.386116507762169192e+01,2.371643754994907738e+01,4.868062097038583147e+01,3.507611338327440365e+01,1.524356375149814191e+01
1.431756118756183938e+01,1.412937947657839288e+01,2.315644063718657009e+01,4.420222915709963729e+01,4.376883641161303018e+01,1.516995547602320471e+01
1.423715358478976256e+01,1.438038805354902827e+01,2.289176088955787236e+01,4.731789257524938819e+01,3.674980977817413930e+01,1.472512062039455571e+01
1.407911883237779094e+01,1.433137931382395536e+01,2.797007518063536580e+01,4.531806969659018591e+01,3.903179822881082828e+01,1.514940578610554844e+01
1.215608964112265333e+01,1.474265992470446918e+01,1.893977378199765482e+01,3.856501045273427053e+01,2.164306426531728889e+01,1.511628567925200350e+01
1.158266793687990237e+01,1.368438056093802047e+01,2.227003659152283532e+01,4.447794813830968508e+01,3.371991989110459542e+01,1.434031767440722227e+01
1.358392118265983406e+01,1.434699443319487244e+01,2.612148901482903796e+01,4.763591652933579468e+01,3.803369685766082142e+01,1.433033213441566112e+01
1.444693961579961261e+01,1.480463343905498519e+01,2.567030078854075725e+01,4.259427702851454711e+01,5.251117669001192922e+01,1.557966878619966522e+01
1.428372028748322897e+01,1.472836038025854322e+01,2.075243184028852994e+01,4.055201410322311517e+01,5.434378244097771926e+01,1.436265866666182234e+01
1.449674756084063887e+01,1.510292166680921433e+01,1.859507861901177250e+01,4.736905544114945599e+01,5.067596277660447157e+01,1.478776194063918226e+01
1.568975942808307700e+01,1.367468744956996218e+01,2.141211364177958743e+01,5.137092545985031222e+01,3.838572556240929146e+01,1.382941944821228830e+01
1.490330220076497625e+01,1.448604232405507020e+01,2.627930876384338532e+01,4.648181065961999536e+01,3.711412630927875256e+01,1.516176044449632343e+01
1.247431391121393673e+01,1.470602408542378470e+01,2.467565460859421478e+01,3.905277231791659887e+01,3.610022217926553623e+01,1.478020240395309770e+01
1.238247761756283616e+01,1.430911305201052919e+01,2.250264462520181041e+01,4.073564989707195139e+01,3.745504035664822595e+01,1.509087590643123100e+01
1.203775985670626270e+01,1.405990553739261451e+01,1.877339563667385036e+01,4.402809451931159401e+01,2.902499146228656457e+01,1.386272011798488002e+01
9.565677501501644642e+00,1.442424079866995612e+01,2.457294832224325987e+01,4.161182248146930363e+01,3.657617619733709802e+01,1.546237110536346648e+01
1.184451234600656733e+01,1.419437835842546214e+01,1.884440524009929518e+01,4.238132379496109081e+01,2.471244246732139516e+01,1.468962217567991857e+01
1.089669854839986129e+01,1.474983619458556561e+01,2.267671812130389242e+01,3.975280345713917995e+01,3.166496426163318034e+01,1.434734953616936259e+01
1.249543865489297012e+01,1.464303513191063288e+01,2.018700255033107283e+01,4.967988367021448681e+01,4.053946340229065726e+01,1.421084555164443941e+01
1.252191842538030997e+01,1.398992565769895080e+01,1.619812713050609432e+01,4.367107492139381009e+01,4.346688951267222478e+01,1.419584983326615912e+01
1.219803565145735647e+01,1.431660475716024727e+01,1.996924124096244313e+01,4.238487895809554118e+01,3.921655476878483171e+01,1.533242452036781955e+01
1.101438563518358826e+01,1.392657183013485778e+01,2.277924365620736680e+01,4.403530645663319376e+01,3.298332057179169396e+01,1.477065644671363742e+01
1.156497003184657046e+01,1.431867533658577329e+01,2.231136936399353488e+01,4.271256773725583855e+01,2.844580800705479717e+01,1.454472124506777497e+01
1.290767773808527963e+01,1.373433017547298363e+01,2.206131053511522921e+01,4.660553226739448007e+01,3.273037319192788885e+01,1.503137602522905425e+01
1.176130177335038063e+01,1.409016982551883501e+01,2.668027893121183780e+01,4.098385153132458925e+01,3.245936033470410109e+01,1.525832993793180137e+01
1.194695298187022559e+01,1.425666417269755293e+01,2.170452700138873325e+01,4.650801781476830143e+01,3.598239863179910003e+01,1.459704679449674458e+01
1.336178499473634673e+01,1.389485025353796921e+01,2.403298297805471506e+01,4.721960305364672905e+01,3.459348308971683394e+01,1.529714590666327823e+01
1.175362597924762831e+01,1.498638871958389451e+01,2.120325762025107252e+01,4.182754142644063222e+01,3.391257275843432240e+01,1.476210587135041408e+01
1.166775391257265326e+01,1.454707812855279414e+01,2.414168399527054731e+01,4.405182575167907544e+01,3.267138812130805547e+01,1.401495075885480013e+01
1.162431052153272404e+01,1.423454127792099655e+01,2.326846136844527990e+01,4.022530147117514332e+01,3.075595658887877804e+01,1.420928752113655591e+01
1.203298683722411155e+01,1.427679991800287773e+01,2.282703819723209193e+01,4.018740653855626732e+01,2.565938520736042960e+01,1.450629357525755303e+01
1.225514857694567716e+01,1.370297521374586935e+01,2.183808446639418932e+01,4.096121406313126556e+01,3.185763979615959229e+01,1.477947659597803032e+01
1.275732369988907067e+01,1.428676703365326084e+01,2.112489500372792151e+01,4.257868475720637491e+01,2.731579073307482375e+01,1.482339058141905497e+01
1.179293336723970853e+01,1.458439705318668800e+01,2.302439140872856171e+01,4.322399744903616181e+01,2.971084213862251389e+01,1.389088909766131330e+01
1.208710310461584037e+01,1.510696446921489233e+01,1.696822744883296963e+01,3.737064296101915062e+01,3.369628601208882657e+01,1.512598357851844355e+01
1.237678362522747122e+01,1.460014391993765237e+01,2.210772931198733460e+01,4.547979085066673832e+01,3.157869498657384000e+01,1.422388791480782011e+01
1.258430859660884593e+01,1.453969278822585309e+01,2.487619487176435840e+01,4.247295029327189297e+01,3.000593732201336650e+01,1.459903400662379802e+01
1.234038266866511258e+01,1.472601656962752692e+01,2.171681744487018051e+01,4.205209625477466773e+01,3.041087971150321323e+01,1.513367533845631385e+01
1.199222106877528660e+01,1.391902888192056054e+01,2.085142547609504149e+01,4.539360833114339044e+01,3.798393929563970772e+01,1.398586464507390836e+01
1.199335655092471598e+01,1.471490827269855828e+01,2.395912865001216829e+01,4.045009939462687498e+01,2.492335457017776434e+01,1.479357617007953252e+01
1.144298854700605794e+01,1.440239341140099327e+01,1.833324097784941742e+01,4.222881757216207177e+01,2.319921110022458066e+01,1.510242255434384440e+01
1.181189086226729046e+01,1.348473881476773961e+01,1.876064102990813609e+01,4.372212009744487204e+01,2.766679997204131070e+01,1.455176226503821191e+01
1.245411219209419684e+01,1.496889766674193112e+01,2.246966972336617729e+01,4.820244955509813423e+01,4.788227234990191050e+01,1.511942110491239610e+01
1.147014768719055411e+01,1.494308774610829360e+01,2.270811605444420778e+01,4.228797372743410676e+01,5.778262356400212241e+01,1.502287962589074866e+01
1.265444416874925793e+01,1.629005644336904268e+01,1.564673080089057322e+01,4.086583076687696803e+01,5.451197731219232878e+01,1.492714111831964985e+01
1.144023066967767832e+01,1.538167519357048896e+01,2.055400645721247699e+01,4.363452970695625766e+01,5.336299338889183730e+01,1.494611954512505037e+01
1.309453305370701059e+01,1.457908578289999468e+01,1.732653567418648777e+01,4.570040058122441451e+01,2.875782336539879935e+01,1.413643454128977517e+01
1.218360528607527904e+01,1.378108008096820747e+01,2.346921899266463640e+01,4.396414359230499258e+01,3.393817474838078851e+01,1.452556732056618216e+01
1.135302526535646095e+01,1.510258817717827640e+01,2.088850564999938442e+01,3.853549257469077816e+01,3.863261924931590841e+01,1.421298961317580378e+01
1.031880746057881559e+01,1.568680274360767868e+01,2.062334567426438170e+01,3.915672500668400602e+01,2.404467076398322334e+01,1.492409849657542686e+01
1.159523773113599532e+01,1.329754118746518188e+01,2.595414505924740567e+01,4.020672364140015276e+01,3.919950098469017519e+01,1.483659070944399794e+01
1.248743845426374932e+01,1.417488041947552979e+01,1.873546643855684124e+01,4.598422435583192680e+01,4.464482710263024501e+01,1.409807732579363204e+01
1.207284012519790473e+01,1.396305324033682815e+01,2.341554826267429945e+01,4.122442177114431416e+01,2.912021359895348027e+01,1.557273260355687228e+01
1.111974671102545820e+01,1.497145754720142108e+01,2.458501934357013141e+01,3.865735422709400382e+01,5.032804668470544840e+01,1.530665507164995986e+01
1.132659828292176307e+01,1.389297978342404072e+01,2.289948330250728503e+01,3.889951673768019447e+01,5.035875558783298089e+01,1.499709604083891534e+01
1.198354975526846644e+01,1.513895668351033130e+01,1.835381851947416365e+01,3.222744845495449084e+01,4.967598536823278721e+01,1.451398114764475977e+01
1.167487988611972760e+01,1.544125676365885269e+01,1.430767431770562936e+01,3.672031787996947116e+01,5.100188258551141018e+01,1.491726284505811861e+01
1.114228754303042379e+01,1.579033120278118041e+01,1.827244449973205320e+01,3.860866861909277503e+01,5.348027852166559626e+01,1.558008261028335006e+01
1.192725274033132976e+01,1.363861955443959317e+01,2.600518154118521608e+01,4.011248732600827793e+01,4.414835340676190611e+01,1.563287862437329245e+01
1.211374047856461900e+01,1.381456586573263756e+01,2.412181226280574009e+01,3.692666295312013602e+01,5.229221429638583629e+01,1.438192125855748849e+01
1.204473718419064809e+01,1.386820226054029526e+01,2.599158598840935497e+01,4.213355017401315195e+01,4.554539855997442999e+01,1.496837949877097529e+01
1.168361350779810515e+01,1.430131888694070064e+01,1.671761422476678405e+01,3.760212765232630261e+01,3.757389788158378963e+01,1.481519485588848717e+01
1.162626542092196757e+01,1.458075313318177457e+01,2.452418492224041557e+01,4.012135055433813591e+01,4.442977341322842477e+01,1.458691804050915586e+01
1.200237433346619298e+01,1.438008951165430460e+01,1.583929806702786536e+01,4.266880474798006873e+01,4.726832901691361144e+01,1.407476944394379537e+01
1.212395424895965235e+01,1.389447882919653843e+01,1.936510570878819948e+01,4.409252245470995746e+01,4.706240212549914048e+01,1.225551686021946196e+01
1.477889519388083528e+01,1.368312499523338133e+01,1.822537749498211568e+01,5.006698333323831207e+01,3.859570171387885296e+01,1.196110200996834649e+01
1.244476371597970399e+01,1.440785858642585993e+01,1.642870623035448929e+01,4.238733962816900913e+01,4.170150650069787446e+01,1.178854866813778557e+01
1.133449346448032458e+01,1.396993879132018002e+01,2.412258873340305243e+01,3.610686557211049319e+01,5.212456020704790660e+01,1.202060239964351496e+01
1.157668215880993401e+01,1.364969409804274747e+01,2.306378839147542692e+01,4.121622205021905216e+01,3.215926823390195466e+01,1.234609321513447000e+01
1.058168820824042200e+01,1.451382033753923295e+01,2.033799095615062313e+01,3.796225388909555676e+01,3.541237713744704507e+01,1.330321945785519944e+01
1.242826528492108373e+01,1.350233134739274909e+01,1.746518308492048632e+01,4.319949528093758317e+01,2.931827626582106916e+01,1.205833236218417071e+01
1.218351463919620059e+01,1.416432913567941299e+01,1.837001229068167873e+01,4.125041579546918058e+01,2.532994325841148253e+01,1.109357683795876426e+01
1.250685951354893177e+01,1.339806153414481038e+01,1.972132190181072531e+01,4.556469569065555447e+01,3.754342680634834295e+01,1.172892805668674221e+01
1.243477277955124904e+01,1.435240258485029763e+01,1.864951141207092888e+01,4.701174385754342211e+01,3.838282119738805420e+01,1.235245899112080004e+01
1.109336996751307147e+01,1.520243043523523596e+01,2.081773460056935221e+01,4.074063529590400634e+01,2.885874030239137866e+01,1.224204371184086249e+01
1.148405974127376616e+01,1.395134041942466752e+01,1.899605515379683496e+01,4.134214098472002519e+01,3.128059881291239464e+01,1.169945314081342502e+01
1.170970804712220215e+01,1.471119991986278563e+01,1.914014444772076473e+01,4.274015378154650335e+01,3.445498115591482957e+01,1.209480578972679332e+01
1.305690208124322638e+01,1.389128354738745941e+01,2.179384559227521834e+01,4.074740185382367486e+01,4.002198565160624355e+01,1.112651987071319759e+01
1.184768518924215108e+01,1.532649703275774122e+01,1.773054521448290899e+01,4.265743243392883954e+01,3.301399058969191458e+01,1.123476445190008022e+01
1.206810024716746810e+01,1.503861359152624999e+01,1.984186859890327526e+01,4.532614696401512333e+01,4.203410248022596107e+01,1.116800352089215664e+01
1.209026275022316810e+01,1.440504322687911554e+01,2.005251905102316812e+01,4.654918549522719928e+01,4.316407426735617747e+01,1.215781206381345569e+01
1.476645524811591059e+01,1.487519537007835524e+01,1.859306375479608064e+01,4.512732334223994002e+01,3.693255208234095477e+01,1.216997739544748391e+01
1.466340278635060379e+01,1.534066340857950550e+01,1.866868787445119793e+01,3.803164264871783473e+01,5.961319718139944257e+01,1.279720995792974847e+01
1.440216936486390686e+01,1.390473999231061875e+01,1.908881456499693741e+01,4.923239020721391057e+01,4.299277830234187547e+01,1.232923792215274084e+01
1.559923364941603019e+01,1.378488749061943075e+01,2.092404583080728031e+01,4.262345208863544599e+01,5.332662969478020187e+01,1.202605918025603060e+01
1.484549987369079993e+01,1.420655371016828283e+01,1.438883459638318030e+01,4.862033055766698197e+01,4.237497651708305568e+01,1.178286145151530206e+01
1.473746629035740163e+01,1.386992300091319130e+01,2.140603012915995151e+01,4.625585714548339666e+01,4.090895610171182994e+01,1.198770377693834099e+01
1.461388137046746039e+01,1.383980171671645998e+01,1.911310846266945873e+01,4.511054075504407024e+01,3.535006377713249037e+01,1.119225487520914086e+01
1.499202883596840685e+01,1.411093717368941469e+01,2.198946211433993270e+01,4.581642179071555177e+01,4.899494056566781097e+01,1.145722659000054477e+01
1.416095172735154684e+01,1.526741486705523876e+01,2.427856264193097502e+01,4.745156258818547457e+01,5.805304521812073659e+01,1.347542458263548681e+01
1.460746312776728395e+01,1.504933747060363558e+01,1.697429687092246908e+01,4.338103409477859174e+01,4.968022430148329249e+01,1.208689016183206988e+01
1.487016512300767168e+01,1.461520938345072906e+01,2.083150304675240605e+01,4.572885467866954912e+01,4.400030201637331118e+01,1.253521050959528083e+01
1.518593201954430505e+01,1.353898493668014780e+01,2.246313636842673844e+01,4.384110750815681001e+01,3.548205061343519873e+01,1.326170481527266531e+01
1.506268972156168751e+01,1.519384765322643460e+01,2.132203482585405396e+01,4.451659988332720985e+01,5.792649612354976796e+01,1.194039248884306126e+01
1.460642738519414330e+01,1.409369818801141605e+01,2.244442396641685988e+01,4.219436882080935192e+01,4.110555646536363383e+01,1.477479636588366319e+01
1.422788498391143186e+01,1.429269283858269546e+01,2.124477151643043982e+01,4.440642457743862792e+01,3.896188452484656040e+01,1.479671211818028631e+01
1.386087969069562931e+01,1.370667870179516967e+01,1.962973258336911542e+01,4.937534515164667681e+01,3.815357371083477744e+01,1.466990738360466295e+01
1.481227555663951634e+01,1.366245833108178154e+01,2.184991000192227162e+01,5.009660431156795823e+01,4.870869753324814155e+01,1.511208162456771475e+01
1.439539967103702978e+01,1.507728960205214364e+01,2.126036130136558455e+01,4.467928375930875973e+01,5.046865053315018201e+01,1.449180606765334467e+01
1.507718495946904547e+01,1.478833225906337923e+01,1.771624907204837029e+01,4.268453898206547592e+01,3.491587881727284071e+01,1.530323081478767833e+01
1.419281001576527679e+01,1.506048057799355888e+01,2.407344761213971296e+01,4.557610451846124988e+01,3.735722502207354978e+01,1.486826764140198165e+01
1.533705912939993432e+01,1.380189727474574823e+01,2.105744108342208420e+01,4.635888804015376508e+01,3.766187511423905221e+01,1.461098200698075900e+01
1.463241635589569967e+01,1.405301620837718346e+01,2.189495297792231554e+01,5.064075402765683975e+01,4.025360774899087346e+01,1.485596896667524192e+01
1.515323820093069429e+01,1.439036241892425672e+01,2.131215199116416059e+01,5.042525483216287796e+01,4.645241840713102732e+01,1.526021737801504941e+01
1.511370136961261323e+01,1.409128453017970095e+01,2.092341219316179490e+01,4.973769820572177025e+01,3.994190173787752940e+01,1.475584312363125861e+01
1.613954796317938900e+01,1.407121689869005010e+01,2.202002813491485966e+01,5.311204965131361178e+01,3.774588949634041768e+01,1.446219596568418986e+01
1.495570077588621771e+01,1.516357219333269057e+01,1.990925163497773909e+01,4.678979648586293649e+01,6.634705616362026603e+01,1.257098378305612840e+01
1.306129015392424719e+01,1.518751251710962258e+01,1.677539244183768830e+01,4.163205054253926107e+01,3.372426216429644086e+01,1.261855132732164897e+01
1.420465171344497080e+01,1.531132789677149297e+01,2.359071101092750666e+01,4.790683895479857313e+01,4.637243222931573428e+01,1.215453544406096142e+01
1.465608041801768024e+01,1.396299773168260216e+01,2.385888465250340573e+01,5.104747441798571117e+01,4.210393827342733175e+01,1.251953632113671944e+01
1.509439107761740928e+01,1.438973949680047859e+01,1.757270157030126256e+01,4.608297262706774688e+01,3.220848290344726905e+01,1.491144065627736381e+01
1.511898131160704040e+01,1.332186975906461335e+01,2.135952180538516743e+01,4.278241590575377984e+01,2.894580590063428360e+01,1.413111976709013362e+01
1.456779973233505387e+01,1.532236156040057651e+01,1.958211686480162683e+01,3.606440921430548485e+01,5.279295792862853176e+01,1.370217347497839100e+01
1.434769580618166707e+01,1.337695960854339283e+01,2.612035390623321618e+01,5.049817141615465488e+01,5.283714252149100332e+01,1.486492954821008894e+01
1.238165334240671456e+01,1.366602936065780760e+01,2.057371753495626621e+01,3.768563396177041369e+01,4.025473795747910799e+01,1.417720688232476078e+01
1.217829140729849868e+01,1.380691942476483725e+01,1.856807056605731532e+01,4.047422162936577195e+01,3.797678394696781368e+01,1.482111016297054640e+01
1.189193182903997936e+01,1.484109948419222036e+01,1.985816886213150667e+01,4.682656736672107201e+01,4.283969779703986092e+01,1.493265729048928137e+01
1.158041621388395903e+01,1.408471338780843496e+01,1.779148575595772996e+01,3.847346412334803034e+01,3.580425302496418993e+01,1.493818749344546148e+01
1.497359026373756841e+01,1.347467208291239871e+01,2.298460188426859929e+01,4.597876915657478492e+01,4.490611788647916569e+01,1.465922771492633991e+01
1.510159613994888517e+01,1.527911099414936302e+01,1.835915999704458557e+01,4.392337632655269886e+01,4.290690198864056271e+01,1.519142428930614841e+01
1.455301820523512646e+01,1.421727857391053895e+01,2.107998134256474998e+01,4.424813697237053844e+01,6.052421588725769652e+01,1.553801932670203811e+01
1.452886616278779108e+01,1.508128131216224510e+01,2.048465753013655899e+01,4.524577382323524688e+01,4.842431449161624357e+01,1.431474282454970393e+01
1.425297805954101626e+01,1.394720892660542866e+01,2.391514658434642371e+01,4.284832003279269230e+01,4.212956606379878366e+01,1.568519307708266375e+01
1.413319860165700170e+01,1.462544213893134959e+01,2.051997490328974649e+01,4.814144152690027312e+01,3.297558215777196011e+01,1.500438167370420572e+01
1.453993716185090967e+01,1.422908669128214143e+01,1.883787845985711940e+01,5.112049011782769270e+01,4.289928304223596456e+01,1.439684708219539289e+01
1.468466956876218710e+01,1.447108338522615512e+01,2.473821352353720116e+01,4.907744389152647102e+01,4.169259777495030761e+01,1.435296746642840660e+01
1.464991614175399448e+01,1.311204782784816025e+01,2.189757621625535933e+01,4.644043289623883908e+01,4.620602129863263485e+01,1.488296234261730788e+01
1.478370422141649598e+01,1.468096499014486511e+01,2.576825666495789235e+01,4.447985907436867592e+01,4.363451206960809969e+01,1.479977163817682140e+01
1.452097873243203807e+01,1.409328009990114872e+01,2.097520080138266962e+01,5.252550437100192937e+01,3.880198838229310354e+01,1.480383143888336406e+01
1.411287269104612285e+01,1.410734128476065941e+01,2.377208327151723566e+01,4.641337871181769970e+01,3.558222538903380894e+01,1.518564824449189743e+01
1.439217612943983404e+01,1.388107593374563820e+01,2.012204230816211137e+01,4.550428261688477960e+01,3.051842080424273007e+01,1.467644806143113456e+01
1.424321343450834654e+01,1.452710357464579616e+01,2.312122354272079505e+01,4.549829345592511487e+01,4.559937482582886048e+01,1.441531915191169411e+01
1.519422998821428550e+01,1.510773877242497854e+01,1.620557258164335934e+01,4.255020008207027615e+01,4.297644830317440778e+01,1.405571050252375898e+01
1.409433519332704066e+01,1.476364359282800720e+01,1.729217494031925639e+01,3.900622838043267393e+01,3.853451757476740624e+01,1.474461703721646266e+01
1.103944337981405965e+01,1.376270241134076677e+01,2.273151961581621805e+01,3.837769765298910585e+01,4.553206485046757734e+01,1.480689207377590222e+01
1.056644359642003472e+01,1.500911062010080954e+01,1.868351427800959641e+01,3.407951353667689176e+01,3.849375492664105991e+01,1.465479818366838671e+01
1.228045242258803960e+01,1.376540161983725064e+01,1.910047199265148876e+01,3.976566827168336005e+01,4.275827648119761193e+01,1.479753781101121746e+01
1.122721028843373858e+01,1.369696848173984449e+01,2.102717013385699829e+01,4.185055108589044437e+01,4.758640341302980659e+01,1.480489176876037050e+01
1.163851876823309617e+01,1.428423859063883938e+01,2.685890686553030804e+01,3.659018755131921097e+01,3.911322326023633877e+01,1.556849259977444078e+01
1.228305767872539001e+01,1.420633237174242325e+01,2.519737848102703026e+01,4.056778729326153865e+01,4.658783044777213433e+01,1.479354625397211898e+01
9.746628046088890329e+00,1.399774416986473469e+01,2.263952445395315749e+01,3.781026594483333270e+01,3.069678832460331819e+01,1.448934134916897420e+01
1.104360428174499020e+01,1.533883628364442409e+01,1.434473655126515013e+01,3.883994360441162286e+01,4.034945282000357736e+01,1.505641478307907377e+01
1.209604837396025268e+01,1.463500129510605063e+01,2.580810042380296920e+01,4.182958903096831449e+01,3.996267402515172762e+01,1.554477854561756800e+01
1.218091098945629369e+01,1.387620176862408528e+01,2.028482248195431126e+01,4.629062493448636673e+01,3.509365261938808800e+01,1.392927535017125251e+01
1.273849286333916098e+01,1.536773421990532462e+01,1.975772708268473465e+01,3.490290878768934846e+01,6.035410537869356773e+01,1.518707125217330045e+01
1.144214042506549589e+01,1.451299099785038571e+01,1.495153498920391932e+01,3.603367450314041065e+01,4.392306162197628083e+01,1.531647322299909320e+01
1.163952804508861050e+01,1.638669505111051450e+01,2.088085552279712687e+01,3.895291200117109298e+01,6.216680983445664310e+01,1.493811022063072258e+01
1.216953993439661907e+01,1.526213514434130936e+01,1.738636214706192362e+01,4.032631087093781019e+01,5.045201527553264498e+01,1.420837563242890944e+01
1.042829236950737126e+01,1.351578100678997174e+01,2.373892751761662723e+01,3.611566096785062285e+01,4.349050020778208392e+01,1.529693313448005654e+01
1.207019685835899203e+01,1.410571115464973779e+01,2.104096322217663939e+01,4.198954992619078297e+01,4.425304536982535097e+01,1.428396776539174517e+01
1.214481372383630386e+01,1.362772163689728799e+01,1.877117685542510372e+01,4.153419525955465730e+01,4.339749666207724488e+01,1.428333307758463633e+01
1.279060178888867405e+01,1.494739126347562141e+01,2.669424274989054169e+01,4.917097645195006805e+01,5.432415616690480675e+01,1.514997206075621250e+01
1.182762796671920213e+01,1.353725267947539379e+01,2.125223132334090792e+01,4.433675038868810248e+01,3.994692912880823599e+01,1.441966799065695071e+01
1.166010235767019410e+01,1.404395804175222118e+01,2.419632080681072139e+01,4.263970037315089456e+01,4.489184900290417346e+01,1.506854573698032596e+01
1.166306348232793511e+01,1.472000982433090854e+01,2.133573859147293561e+01,4.118284718908879682e+01,3.640618167927859616e+01,1.483929426391101281e+01
1.172841665021882385e+01,1.532007266409469892e+01,2.135806827271587593e+01,4.111429431904228693e+01,3.953139586863315458e+01,1.448906939490749224e+01
1.165132145548287745e+01,1.445246148756443816e+01,2.409618879180947459e+01,4.156933934622439608e+01,3.891425071864837548e+01,1.505149495561960293e+01
1.205775247269161099e+01,1.338814702324543582e+01,2.688860448497121780e+01,4.679316309834725018e+01,5.096628021099800776e+01,1.411436145189026625e+01
1.153005884721657637e+01,1.419109234745430648e+01,1.759427762459237599e+01,4.021740141241350841e+01,3.433969161194445974e+01,1.462596415577813680e+01
1.184733213977058952e+01,1.492982361529525193e+01,1.905695999501214644e+01,3.822505161277862129e+01,4.903434695672251564e+01,1.452782053860297395e+01
1.125958413308113926e+01,1.416826296940016405e+01,2.435056116567222162e+01,4.165085317295093859e+01,5.245600946990172275e+01,1.462072670704331756e+01
1.141143189289934234e+01,1.496976541382635872e+01,2.752254206755223009e+01,4.198147897162296260e+01,5.210222079331816758e+01,1.310754248579709014e+01
1.274308396221685058e+01,1.392955015653108219e+01,1.863428226829298140e+01,3.951969607977076038e+01,3.945532065085453155e+01,1.063080434257101459e+01
1.305922067141468901e+01,1.474680482588141750e+01,2.510415573180925719e+01,4.832610678006942351e+01,6.355149157614945210e+01,1.245255003774634517e+01
1.224786105608131948e+01,1.433292841330220391e+01,2.273228690823366094e+01,4.410131103592502200e+01,3.595382593466761278e+01,1.285794606727424494e+01
1.272574575303950439e+01,1.378090407277121976e+01,1.635455535085410261e+01,3.664257390468659281e+01,3.050252389404986531e+01,1.130479503218515802e+01
1.179155634318746237e+01,1.450813316055755031e+01,2.151426249905666310e+01,4.230668374267094123e+01,4.366210304902668327e+01,1.166266460691008078e+01
1.221135827382720684e+01,1.431955157138335721e+01,1.629823768571649012e+01,3.756288256335007958e+01,4.250888283420461988e+01,1.174491578600126829e+01
1.259949493969028644e+01,1.342391214232689656e+01,1.714598419206945579e+01,3.735637758688621801e+01,4.168146560258544753e+01,1.137516645411769645e+01
1.186042727055610690e+01,1.393049149901320050e+01,1.456345409410928760e+01,4.394824800764290984e+01,4.175243561229291345e+01,1.183597525055117394e+01
1.262883243269924627e+01,1.438093093588585525e+01,1.668482912982179656e+01,4.829540214335522563e+01,4.221725922454742630e+01,1.179031729378442250e+01
1.456435733387042752e+01,1.441750168267611798e+01,1.484206009653505021e+01,4.333773409999776050e+01,4.010356453027645784e+01,1.271271699985374504e+01
1.220847763371224559e+01,1.474238735688071955e+01,2.362672035296228756e+01,4.043458011135892605e+01,3.535069083566262549e+01,1.354512423371959073e+01
1.226974616822251463e+01,1.401647577638859588e+01,1.963555171183719139e+01,4.325898693639322090e+01,3.474297653895040838e+01,1.178404736014194931e+01
1.232978694482358151e+01,1.570945408971769908e+01,1.581453812839552242e+01,4.196944426509190151e+01,4.689048046308590756e+01,1.219041614629317927e+01
1.236269577144572196e+01,1.602400198247152474e+01,2.324525807499968977e+01,4.644497257586237993e+01,5.595845226244880166e+01,1.253229159719916730e+01
1.095514348454537235e+01,1.426109572579446194e+01,1.693689502484571108e+01,3.899810842296484736e+01,3.138704478425979971e+01,1.164765330885085248e+01
1.269378239069271253e+01,1.389014982186070490e+01,1.958203343541365271e+01,4.425202718535759772e+01,3.257611872551507304e+01,1.263899908279348416e+01
1.145428417378058583e+01,1.523500117018341626e+01,1.922237395676381766e+01,3.737301121085484823e+01,4.652173282485200190e+01,1.361932860905847065e+01
1.334644265276246422e+01,1.525461055459286897e+01,1.915362144600711503e+01,4.453233588942322285e+01,2.901573257553127050e+01,1.152283810788173568e+01
1.121247439494367271e+01,1.378549184141402861e+01,2.554591677392437887e+01,4.226517476763348924e+01,3.748713017207008136e+01,1.182760745941592617e+01
1.257521515937745882e+01,1.400735783153940872e+01,2.446170477130131005e+01,4.485448234368875120e+01,3.640400001928600204e+01,1.207955421627761439e+01
1.143860974870226954e+01,1.550159706875871279e+01,2.068295091078066861e+01,4.037650512877286957e+01,4.388975680626911924e+01,1.234518813181753316e+01
1.165626497032696385e+01,1.460302117648386044e+01,2.093097757512562396e+01,3.865551370674798193e+01,4.774599765184858313e+01,1.502836552132059467e+01
1.169347466882048003e+01,1.487169485035999372e+01,1.629655747882375749e+01,4.204578193626670668e+01,3.589484033995727685e+01,1.480569861023661460e+01
1.152994804249620131e+01,1.440376147681905294e+01,2.011751118293288698e+01,3.959460601375528199e+01,2.699050520795115204e+01,1.389740268386380961e+01
1.136990067401164417e+01,1.448963190533566880e+01,2.279624010326095274e+01,4.059038240114470852e+01,2.690766473483352783e+01,1.378940850028769560e+01
1.203414054565820557e+01,1.561431329261023038e+01,2.340795202421515597e+01,4.450451113830570904e+01,3.625213611854149320e+01,1.544628397451488055e+01
1.156185949719217554e+01,1.434792039356363880e+01,2.423444705765888330e+01,4.370989775314615855e+01,3.519336654922280161e+01,1.505835313151702159e+01
1.484036786690816889e+01,1.448779915450605671e+01,2.088562510222516266e+01,4.559887099049143444e+01,2.874109833004754577e+01,1.459201230918538172e+01
1.454780652840814525e+01,1.404375426093572443e+01,2.314965188980545818e+01,4.282519008213193246e+01,2.876949756820232551e+01,1.525847951282947434e+01
1.481710863908787523e+01,1.382008576578382808e+01,2.374153686082481229e+01,4.560496154250505185e+01,3.478723239280705570e+01,1.468258163161381447e+01
1.547331133858871155e+01,1.367908315255589713e+01,2.081262314710273031e+01,4.921707685087545059e+01,3.621333765478689770e+01,1.487784002692302110e+01
1.463197290830499320e+01,1.397480862529434731e+01,2.579482244655078915e+01,4.843369596584613390e+01,4.557424876135559799e+01,1.536520702293019802e+01
1.410873006140642794e+01,1.500779868629390101e+01,1.926624019670440902e+01,4.464652123934354222e+01,3.769251069122257292e+01,1.528679081706494358e+01
1.538140944494431217e+01,1.438347443724714481e+01,1.877123649759577262e+01,4.728943614371690529e+01,3.737572129033832624e+01,1.528383915358377543e+01
1.518285914299542050e+01,1.557072054728817534e+01,1.751446261209785860e+01,4.262690002742755269e+01,5.158334811905127992e+01,1.455220744817379774e+01
1.392963160644532294e+01,1.417263856724608928e+01,1.897849798317222891e+01,4.612807494568437505e+01,4.199493617833599757e+01,1.410392359154888808e+01
1.504417134245610654e+01,1.441008820177734862e+01,1.918779832652458595e+01,4.439502134625593044e+01,3.535314335902658200e+01,1.480552550765398756e+01
1.416045485030008777e+01,1.444394491246731249e+01,2.585258810208587832e+01,4.889213841293470608e+01,4.113440772351412278e+01,1.504962558062723588e+01
1.510160021600151659e+01,1.418397281106751429e+01,2.148430989977630290e+01,4.283427166545907028e+01,4.049508506105829042e+01,1.486846866148587054e+01
1.421651420496359108e+01,1.499756774345273591e+01,2.195493686363841590e+01,4.868788239884532487e+01,3.091143281382528585e+01,1.549933406178594808e+01
1.458781991704024961e+01,1.566631495677511232e+01,1.458789471461849097e+01,4.671434526160163614e+01,4.544317507972778003e+01,1.455830443345936764e+01
1.579777547920298630e+01,1.539241895977031049e+01,1.607018682340370574e+01,4.336882485477798355e+01,4.340194957008829135e+01,1.457585015893672065e+01
1.466602980043846216e+01,1.646947312635947469e+01,1.765346663166738850e+01,4.726499873581684597e+01,5.327861614174481986e+01,1.448942890080735602e+01
1.502745194697921782e+01,1.439425067856213758e+01,2.285759058316936532e+01,4.809472433943837899e+01,3.314313924425350422e+01,1.538731800960245621e+01
1.341759874421657983e+01,1.460194259319110266e+01,2.134334642967877471e+01,4.277424268205678004e+01,4.464961078933954752e+01,1.512043114650734132e+01
1.418189984096461842e+01,1.420882530912273367e+01,2.494960120991867569e+01,4.703423544710881288e+01,4.143614366208306166e+01,1.480744554517716338e+01
1.479938922974471893e+01,1.381882630377038623e+01,2.427115205370559181e+01,4.625297233643955508e+01,4.030619794043801107e+01,1.459497984261360415e+01
1.469791170447656015e+01,1.353016159067494328e+01,2.487213458623721962e+01,4.911076398104943053e+01,4.501186362980303812e+01,1.489427797162062461e+01
1.413729280293536306e+01,1.446119519784718754e+01,2.252172869293101343e+01,3.982703218011577206e+01,3.977558469566383792e+01,1.467425814722218114e+01
1.425793997841143224e+01,1.460758316036939597e+01,1.795767315427742972e+01,4.431475567240774183e+01,3.256151213021796309e+01,1.481915186129882578e+01
1.491687130192137545e+01,1.453963816756711402e+01,2.227648155307585043e+01,4.450469769875771675e+01,2.772983287759741700e+01,1.388835948308787138e+01
1.447428650083605817e+01,1.550164935159005530e+01,1.962897552941311474e+01,4.246859641383308315e+01,4.573244675286659344e+01,1.390509132804749726e+01
1.373525821607965192e+01,1.363299579845299370e+01,2.022860279421717067e+01,4.560347398865364710e+01,4.322078179031574052e+01,1.505789858693730032e+01
1.457222829368851436e+01,1.405181176481922023e+01,2.303527771714730576e+01,4.355453115191787106e+01,4.278000761471517421e+01,1.447995383299314298e+01
1.463622413866802141e+01,1.472383088922375904e+01,1.522675863488252013e+01,4.472423471580228949e+01,4.833784095996875863e+01,1.453926229806414128e+01
1.419814435938676667e+01,1.533893253993975314e+01,1.806049455564694384e+01,4.417989957732246609e+01,6.016350682027658081e+01,1.511403616886753198e+01
1.524241652340553443e+01,1.458624117629195460e+01,1.700282921408583547e+01,3.944607466430061748e+01,5.863476291189250844e+01,1.521033600200593128e+01
1.522179904531264327e+01,1.558933080308765540e+01,1.985819058693379446e+01,4.427987296714016452e+01,6.603295146249067216e+01,1.464640822702539502e+01
1.439833776087081141e+01,1.565927142296893493e+01,2.024491276508381432e+01,4.177471849791351133e+01,6.464455273841889493e+01,1.506353382747944814e+01
1.401276353739038072e+01,1.577808224780367041e+01,1.999146034525471194e+01,4.062917371883715134e+01,5.549326996090051267e+01,1.479481724911953933e+01
1.456597978871140953e+01,1.378837879443128855e+01,1.801786139836625011e+01,4.418918157567986071e+01,3.938813236929779293e+01,1.501429167378825369e+01
1.493120264372620198e+01,1.472293040766940031e+01,2.550892274297553897e+01,4.749484454583370052e+01,3.719993402424610451e+01,1.535729144055916251e+01
1.535115803826022685e+01,1.437197413670732260e+01,2.159227323158030387e+01,4.755641483128317759e+01,3.255807594556630136e+01,1.439248075961054596e+01
1.492992566434024049e+01,1.412216370178112257e+01,2.506841863903864720e+01,4.347425524340961545e+01,4.361050323502740156e+01,1.571440450651877896e+01
1.420255822538543811e+01,1.372493543439328789e+01,2.104320045999919131e+01,4.870493855156156826e+01,3.228732964477899259e+01,1.514114048453059880e+01
1.452085497923054902e+01,1.522542891129094933e+01,1.675331302738102934e+01,4.856841524058834381e+01,4.110212653011366513e+01,1.515203430068701707e+01
1.455804816166143567e+01,1.473409346486561589e+01,2.241678058201267376e+01,4.597667986674177598e+01,4.152559079354580263e+01,1.484986301317881008e+01
1.468068806553325878e+01,1.401468568560225947e+01,2.333104122888192222e+01,4.720445266307311982e+01,4.120831353295275790e+01,1.515360809556225341e+01
1.470364720962816563e+01,1.401329018206511989e+01,2.053938830834433205e+01,4.615170065845971692e+01,3.522053742948189381e+01,1.473325662726487906e+01
1.497736469202722276e+01,1.434500024474759172e+01,2.289151995630812308e+01,4.403874020907264253e+01,2.931568454176152372e+01,1.504171329186284822e+01
1.416734157285458551e+01,1.377069757644500037e+01,2.409526209219213655e+01,4.501638950881748968e+01,3.109937723554463318e+01,1.499287656621449649e+01
1.433528431582091756e+01,1.422720867206001039e+01,1.957562964814952622e+01,4.771260559432863602e+01,2.709424759518835302e+01,1.412255654024747997e+01
1.513046003831144226e+01,1.391264859642535257e+01,2.230764294480792387e+01,4.392930309359163488e+01,3.318338496785239045e+01,1.499921393787225199e+01
1.486638811139916072e+01,1.465356728073299664e+01,2.375482615458399138e+01,4.654786381582913179e+01,3.071222304423617189e+01,1.480124014785158337e+01
1.105423590480192786e+01,1.335887556760092743e+01,2.371755937950158000e+01,4.059482827407899208e+01,3.190387689028067086e+01,1.520854162779307117e+01
1.149451903954043175e+01,1.444467790245985483e+01,2.183655341172090658e+01,4.223222781460315645e+01,3.833361327065083657e+01,1.437689592692083806e+01
1.135367011222338185e+01,1.440158843495131435e+01,2.447319594951921573e+01,3.811322883786917970e+01,3.451700083648529471e+01,1.479916049468625516e+01
1.185417930450655177e+01,1.497724899443316282e+01,2.262497078119444538e+01,3.743848223560114263e+01,4.627364513179671235e+01,1.482729633072075082e+01
1.084935174732623686e+01,1.418469763040478071e+01,2.441408742986593339e+01,4.381019659579369829e+01,5.146209666808989169e+01,1.401883975489164769e+01
1.086691083242291178e+01,1.500154192055118152e+01,2.030871300427208581e+01,4.160958170223103281e+01,3.872718723840043964e+01,1.427460045290439972e+01
1.283988718224186343e+01,1.482565192095895057e+01,2.001727285765889519e+01,4.157783181528967020e+01,4.241794078500113585e+01,1.504147974814616617e+01
1.306490364998385090e+01,1.395061101654307123e+01,2.566641712866075764e+01,4.150681793789460983e+01,2.943233912455675139e+01,1.534577758992113949e+01
1.182127467094102258e+01,1.463207481251511055e+01,2.227585406935890333e+01,4.464682578239785471e+01,3.160687086066419837e+01,1.405857053366174370e+01
1.182124190078128301e+01,1.456520069548641416e+01,2.213964616406550334e+01,4.200150122561866795e+01,2.665334443968423273e+01,1.461573792570771602e+01
1.135507608057426232e+01,1.429351146873515077e+01,2.339753967625032161e+01,4.117392852676867676e+01,2.885652669093009948e+01,1.499454985018738995e+01
1.270686798282503993e+01,1.385397779961486364e+01,2.372581345752334414e+01,4.229586189043340028e+01,2.833878243108873107e+01,1.489905106576546423e+01
1.322619633052063648e+01,1.447886813505253301e+01,1.941293506279427561e+01,4.409452942121153285e+01,2.556784228275652637e+01,1.385276035237822256e+01
1.228947713149091747e+01,1.455281075575468996e+01,2.087307446022360580e+01,4.475757624698207593e+01,3.496388540745073925e+01,1.444871983485468725e+01
1.154742517004718749e+01,1.342288194114460786e+01,2.267846434445967319e+01,4.127883775816550838e+01,3.222490459223277526e+01,1.516797959051210754e+01
1.336553806929192945e+01,1.383322615045509174e+01,1.900985194099823872e+01,4.416162333659971040e+01,3.233343924188860541e+01,1.532994000368239540e+01
1.155315300446671678e+01,1.538728652107079853e+01,1.812861723532252256e+01,4.283202082541519218e+01,2.284025610231913106e+01,1.540026644198922767e+01
1.292764049975864360e+01,1.400779303202746640e+01,2.505902573851319559e+01,4.148448505952865872e+01,2.955430547294296062e+01,1.443556185013685855e+01
1.301431311248558842e+01,1.438706707399188645e+01,2.602899399708904227e+01,4.476822579231276933e+01,4.231160706340814670e+01,1.514621805308077640e+01
1.409942950528149375e+01,1.406195785355266459e+01,2.647965465740044522e+01,4.797475589890733261e+01,3.970362187763694806e+01,1.476431272860446242e+01
1.452232119466523130e+01,1.438974489580909477e+01,2.203635931994229580e+01,4.542638185568611675e+01,5.430782997590670647e+01,1.496452095151794381e+01
1.393893037846926397e+01,1.330007225198855281e+01,2.286429381050257703e+01,4.805489675696787799e+01,4.790107785899397896e+01,1.455692275152247817e+01
1.441202606632407779e+01,1.395268554917818449e+01,2.395622909200799810e+01,4.899337473323864600e+01,4.722353858222671619e+01,1.455436969796256186e+01
1.510042064262222539e+01,1.433948248565922690e+01,1.815390433311092977e+01,4.854309598101501422e+01,3.107379536218064331e+01,1.544680031597043879e+01
1.454633584481790898e+01,1.457400802539670792e+01,1.863415331857822821e+01,4.270845113522720737e+01,2.894143138267031290e+01,1.432223521386472243e+01
1.473874211479344609e+01,1.481016185571281163e+01,1.832870417370750715e+01,4.266109711508862290e+01,4.430563585034933283e+01,1.455013748937391682e+01
1.433181165458819351e+01,1.406315423650280572e+01,2.476908554153079578e+01,4.456716719105581603e+01,5.286682857477586595e+01,1.496582987366672235e+01
1.475468952997525207e+01,1.431823314037895045e+01,2.145763696641204987e+01,4.706502346741945075e+01,4.735220399976586236e+01,1.421460808674933851e+01
1.440389605540398144e+01,1.421456604463089057e+01,2.465698524279573789e+01,4.546887044061741534e+01,4.466886745281281890e+01,1.489722130100688879e+01
1.481390819523011437e+01,1.474864232419172261e+01,1.848719396771230095e+01,4.933474590992366871e+01,4.581030873715450014e+01,1.477290810142546107e+01
1.442020889017557828e+01,1.472253104283071856e+01,2.106016556287498531e+01,4.839141266944395881e+01,4.982958530030272470e+01,1.383291144381310289e+01
1.431958518204300823e+01,1.352821302379669888e+01,2.196507397286459806e+01,4.992292207296956974e+01,3.786286594910863812e+01,1.510523064629055767e+01
1.170649777137769476e+01,1.421188653954366288e+01,1.706500579171754239e+01,4.246918696322829589e+01,2.885456582155536154e+01,1.397202640663820894e+01
1.282845061376232110e+01,1.434507174578933864e+01,1.849223691510738021e+01,4.311804148496227640e+01,2.671545305652541202e+01,1.408749823344560248e+01
1.157985750143324566e+01,1.362516654552715600e+01,2.671574223363771594e+01,4.114200693523120833e+01,3.429279372527261671e+01,1.535760595045153565e+01
1.142013504101738341e+01,1.410974058250086927e+01,2.263429820201034204e+01,4.237646607631409523e+01,3.124706583262451076e+01,1.459074047183580802e+01
1.306046275452072791e+01,1.395124494791655323e+01,2.368429927062627272e+01,3.940077036176323588e+01,2.657918113350257272e+01,1.522211622462202740e+01
1.173588715649630743e+01,1.397747828365554312e+01,2.400873901010753997e+01,4.322976538051900519e+01,3.506200436118020747e+01,1.496971561912879345e+01
1.026025694914835285e+01,1.488413893435561164e+01,2.398974489047165193e+01,3.895975306078486966e+01,2.825179120708838099e+01,1.513912686117452466e+01
1.182066095105593462e+01,1.479656082712444842e+01,2.485450106590815977e+01,4.448222200282349803e+01,3.335248494709387757e+01,1.462175386532405597e+01
1.073061076534628455e+01,1.559994559504803213e+01,2.407798703692964892e+01,4.527436750895859063e+01,3.782320796188071910e+01,1.411489046619420051e+01
1.211765428030944491e+01,1.335069226842853851e+01,2.559858784629233597e+01,4.297358855983526382e+01,3.305312255822853729e+01,1.574191416415314926e+01
1.267466575730490419e+01,1.387483423664335369e+01,2.289986853600315797e+01,3.893922955970229793e+01,2.923484566133127771e+01,1.529995995873713355e+01
1.121668635501199063e+01,1.432009852141524497e+01,1.642110700955236524e+01,4.203276105416563269e+01,2.654665535295565348e+01,1.449048200138177123e+01
1.217312372877364091e+01,1.540447461367577375e+01,2.170383691333373122e+01,4.545174569264013797e+01,3.889450988166508694e+01,1.469781220350762219e+01
1.142043072150785221e+01,1.457628738558331527e+01,2.143358052039637229e+01,4.474628295849929316e+01,4.616679443884449796e+01,1.520169545931573474e+01
9.852772343613922956e+00,1.548808848331913701e+01,2.037682585537128688e+01,3.760713916970049553e+01,4.453790704225291108e+01,1.533475446714535728e+01
1.273082101453270454e+01,1.441316426285074392e+01,1.747704114954907340e+01,4.197200453883358762e+01,3.036774151342667594e+01,1.443985721460249572e+01
1.217532805414670705e+01,1.437207835641832787e+01,2.103836739170230885e+01,4.398772780143137595e+01,3.668092443810881775e+01,1.479344142358099745e+01
1.277153714103701532e+01,1.418612707457465660e+01,2.477619217703541565e+01,4.197323173541109043e+01,2.822254034194222783e+01,1.501656307349825425e+01
1.186691117470213896e+01,1.410465855197321972e+01,2.460683268365065146e+01,4.272802220591602662e+01,3.153735329181251146e+01,1.430596638111077645e+01
1.194046453428872923e+01,1.498223051376690051e+01,2.348702217712162366e+01,4.059165385932341508e+01,3.640969568647097532e+01,1.399050797716195937e+01
1.290215891176908869e+01,1.433434573454127303e+01,2.413669785577907589e+01,3.752351725261866733e+01,3.779269600456590439e+01,1.446524117252390518e+01
1.345994885798024754e+01,1.437033872975553095e+01,2.018581430389147613e+01,4.251398824579902680e+01,4.220971611930340117e+01,1.418613567039014001e+01
1.463448018842936449e+01,1.423391109619293537e+01,2.378668660760190789e+01,4.611083066325974755e+01,4.117807392512261799e+01,1.423773030507866366e+01
1.541065063246207423e+01,1.442431278256950122e+01,2.420203220681498379e+01,4.499175304471658166e+01,3.187109108717832839e+01,1.492356827321510870e+01
1.458599623011475721e+01,1.423510985219202141e+01,2.107137280138384483e+01,4.610129949640811020e+01,3.832939720408531059e+01,1.407449296181741438e+01
1.211572176980153515e+01,1.430030568800246193e+01,2.225531087630874083e+01,4.309907672932112632e+01,3.090113077299840327e+01,1.460701294042645237e+01
1.228355271095467494e+01,1.476495282508228968e+01,2.462131908641274691e+01,4.067175367203491021e+01,2.790425623592942372e+01,1.506900233526639177e+01
1.271594432432465815e+01,1.437458554552361178e+01,2.461427571146569804e+01,4.017992353721164989e+01,3.155698457246361599e+01,1.523295768868790390e+01
1.195763132832640174e+01,1.416213562481611277e+01,2.049136219052187613e+01,4.255626258428038255e+01,2.993823990272379021e+01,1.384711384422650582e+01
1.146881880528293962e+01,1.545422892890153932e+01,2.137430524081381833e+01,4.132503266804548758e+01,3.449437249556638108e+01,1.432164368105992480e+01
1.176294689511616376e+01,1.443350011115725628e+01,1.997136682506965499e+01,4.040712293248196829e+01,2.510166810521495151e+01,1.442927626819601983e+01
1.136325464698465737e+01,1.436092008283085164e+01,1.930991411642382616e+01,3.962987010355155348e+01,2.578982723387615295e+01,1.363945305481659709e+01
1.195500364250078107e+01,1.415076578144744701e+01,2.073423982908190055e+01,4.406302887476388008e+01,3.151549088383256958e+01,1.501360862264404439e+01
1.297549486519562478e+01,1.346284036885233704e+01,2.444913435120984957e+01,4.012984309555833562e+01,2.969731631812222972e+01,1.416319098923568021e+01
1.207091610802681281e+01,1.522044349368850646e+01,1.859825788290004667e+01,4.161769216005293970e+01,3.348645878193083547e+01,1.423999971672660259e+01
1.275511210772375392e+01,1.375539716852015104e+01,2.347827731026771048e+01,4.031148273961527906e+01,2.552485764549929925e+01,1.526737050933700779e+01
1.122019100320828500e+01,1.385606108844334372e+01,2.185993977351349926e+01,4.197611321570634857e+01,2.844432543247409484e+01,1.469655873811581515e+01
1.178625372936708260e+01,1.423107092819743436e+01,2.244099057140136821e+01,4.259737767716305257e+01,2.958149672332735847e+01,1.426521141883295307e+01
1.118701842385913459e+01,1.460880842303399163e+01,2.679388885650036656e+01,4.137446705808681457e+01,3.488115043234599710e+01,1.515776076431376396e+01
1.162023664659039568e+01,1.458426063717347887e+01,2.336560212151930216e+01,4.025383613394988203e+01,2.831418826983232861e+01,1.470705905162767380e+01
1.235284263493794654e+01,1.396409269847620216e+01,2.149023785260060393e+01,4.187355486236246804e+01,2.477646492891047103e+01,1.442746203640042424e+01
1.249368037945088261e+01,1.466149498451488498e+01,1.816208957314205463e+01,4.316512165645006860e+01,2.607422224694245472e+01,1.486223472809523471e+01
1.197021897743932151e+01,1.483861271201364396e+01,1.868296558553478803e+01,3.854167206492603270e+01,2.580341459191726727e+01,1.398374644263285838e+01
1.141839093333631361e+01,1.500885211890746262e+01,1.725374267859436017e+01,4.129218190918469134e+01,2.390579687324667901e+01,1.469754077815949245e+01
1.077397023782901542e+01,1.404535408816353126e+01,2.072192900082820444e+01,4.106132932696314697e+01,2.564591466509860851e+01,1.468304801196759257e+01
1.155558100824744372e+01,1.473695095778446529e+01,2.209293129751656792e+01,4.675028067166570622e+01,3.575399712630022009e+01,1.450983708688014850e+01
1.340583908596645379e+01,1.385302486201470451e+01,2.299227265974116818e+01,4.034047862985785571e+01,2.559293342490079226e+01,1.490817637787445804e+01
1.220425651192865679e+01,1.489656552456222371e+01,2.523545132853800510e+01,3.803887735825206562e+01,3.320749567946751313e+01,1.550510433552687140e+01
1.311393254901233973e+01,1.369726601336019023e+01,2.595166670670834463e+01,3.993922965882072162e+01,3.401440977449027514e+01,1.488974675206354625e+01
1.195267313678613696e+01,1.423053303923036061e+01,2.284735408732266038e+01,3.429650786907842530e+01,4.380662498930796289e+01,1.520635849164787601e+01
1.176808998997177369e+01,1.355852642002936648e+01,2.105826732384764810e+01,3.928456750390898122e+01,3.291357037187348311e+01,1.585983869465812113e+01
1.119495665927340866e+01,1.444601094465432034e+01,2.227745075811056097e+01,3.680269402531943967e+01,3.037963696070174180e+01,1.309035212107322366e+01
1.238134382739808714e+01,1.396439307524341444e+01,2.142802356236302685e+01,4.333858277487519217e+01,3.212760071666456696e+01,1.462538792816593158e+01
1.136830694914533701e+01,1.407800250116274654e+01,2.355063044698566088e+01,3.881948289785098893e+01,3.232692013161882727e+01,1.422187892998477921e+01
1.167228477283468280e+01,1.416232847887084390e+01,2.480266505904095808e+01,4.126495122481679090e+01,3.049784354347891124e+01,1.511600873846227877e+01
1.140641434719528391e+01,1.467560327146138377e+01,1.891084188654476606e+01,4.450473091936458303e+01,2.725816120719535718e+01,1.539593969462686651e+01
1.142957518517864912e+01,1.431791157377130652e+01,1.820097782054955715e+01,4.612104235754794956e+01,2.878927449556203300e+01,1.474731134654292752e+01
1.187326825824642995e+01,1.483317957149273525e+01,1.763006799753192766e+01,4.032809188788537824e+01,3.267689160839232443e+01,1.444491721470507706e+01
1.170979225215777220e+01,1.401563225586745354e+01,1.689822246005102357e+01,4.304966418076388379e+01,3.831249478500951255e+01,1.442824750172010084e+01
1.286553761270089247e+01,1.473538708222811877e+01,2.055660737996209519e+01,3.446331218775063832e+01,5.183506063613392456e+01,1.496212269591394062e+01
1.187810615226930544e+01,1.671923621609141009e+01,1.643026204367520293e+01,4.553207020562555840e+01,3.792746379483538988e+01,1.445696512825990254e+01
1.254163065438088864e+01,1.557172856334144129e+01,1.453393692388149461e+01,4.672078874917546898e+01,3.411705104885072615e+01,1.492983999374459003e+01
1.114549555288888882e+01,1.478998631469826819e+01,2.306245219103122679e+01,3.978037641144029379e+01,2.476979694549216404e+01,1.488189564927876773e+01
1.552356474675690556e+01,1.497681969682790992e+01,1.956629348232412369e+01,4.808537406133373082e+01,4.252669908777023267e+01,1.409194575846911235e+01
1.395724349997385794e+01,1.340502329130182879e+01,1.827436310033089129e+01,4.051944531487524159e+01,3.998987730701638554e+01,1.479612964067710479e+01
1.484451842669911237e+01,1.443234581450144205e+01,2.651182584043115398e+01,4.927423813492161742e+01,4.760753506670948099e+01,1.466621316562342159e+01
1.444190734909193452e+01,1.473234460915969457e+01,2.520522660953662353e+01,4.779846456195448212e+01,3.923994698202436382e+01,1.516995092995350092e+01
1.490932848078377759e+01,1.442942748570789746e+01,2.496426491501675216e+01,4.936931421812438714e+01,4.052989321099417452e+01,1.405110272790968651e+01
1.509645538554561384e+01,1.376959166015284453e+01,2.330536266715305160e+01,4.624697356153740913e+01,3.201399837574273022e+01,1.510708762689481688e+01
1.516418895280211387e+01,1.399924583669737288e+01,2.361448430975204360e+01,5.007296111000255223e+01,4.054262226197771213e+01,1.446725933088269578e+01
1.489278718482408692e+01,1.378966472624155237e+01,2.200015331043559996e+01,4.920652222855913038e+01,4.027635389478610506e+01,1.479874164770261125e+01
1.492638651850824161e+01,1.520004633787341675e+01,2.185212236201221714e+01,4.477173437556901092e+01,5.710526795216227214e+01,1.475735016231015173e+01
1.444441844858484458e+01,1.526112115164879413e+01,1.758251712252269172e+01,4.339491191923733027e+01,4.662569160371365484e+01,1.529218972719105274e+01
1.481537576420774727e+01,1.477868593880001136e+01,2.728998757297013000e+01,4.699001021987190541e+01,4.066126192396083638e+01,1.479222158614513027e+01
1.214055007302119549e+01,1.454826009040964507e+01,2.041220743096084078e+01,4.631893353273441960e+01,3.109145131198361867e+01,1.449679651422169080e+01
1.113566270612139064e+01,1.408438835912568088e+01,1.972561866747951598e+01,3.936449386184431631e+01,3.965311174347942824e+01,1.479617047300546417e+01
1.202320755485558124e+01,1.506176471032088138e+01,2.196352349439692730e+01,3.857001547495584504e+01,4.926889749591911993e+01,1.474695548024763703e+01
1.286264579457663970e+01,1.424487912653992794e+01,2.470729873275110222e+01,4.318222275860726000e+01,4.198122097296600685e+01,1.485947010341645758e+01
1.147101362656982459e+01,1.407486852065114924e+01,2.664274869848144078e+01,4.149589905819811264e+01,3.982447512570205816e+01,1.512693015615590753e+01
1.272144772277281355e+01,1.406171157450417297e+01,2.291980305264577922e+01,3.742864609900453132e+01,2.957392709132889408e+01,1.516665654466183355e+01
1.152255657452691473e+01,1.362603446870011226e+01,2.527112878595579559e+01,4.164170658446685280e+01,4.862618660875479293e+01,1.407479605734451056e+01
1.156561055101981417e+01,1.478560801798481705e+01,2.264502666452839819e+01,4.082207668738706730e+01,3.922323532611170549e+01,1.429562134806973184e+01
1.236459257618911778e+01,1.492076294593529973e+01,2.349095421293834107e+01,4.605717716148206620e+01,3.530831825008267089e+01,1.380728813198430949e+01
1.292114142659423237e+01,1.456506402982611981e+01,2.210775992953616154e+01,4.261442362514659976e+01,2.772922832405830107e+01,1.497293237101979102e+01
1.210637986898971263e+01,1.556197190914174122e+01,1.382379031004751369e+01,4.353341645422229078e+01,3.769302444008356190e+01,1.461569057664372906e+01
1.105964990269413306e+01,1.571027770657597067e+01,1.640577379280128412e+01,3.828336787278496445e+01,4.532669429007269457e+01,1.476265134578921234e+01
1.115170234413934836e+01,1.581034859517224511e+01,1.773565069118819082e+01,4.048334568921247012e+01,4.865079296366985062e+01,1.400654530325795477e+01
1.241347410525274597e+01,1.475935111572747971e+01,1.685740561465251730e+01,4.503768234968718787e+01,4.558039847610363182e+01,1.406947038450383403e+01
1.243845573952193106e+01,1.403583908439517458e+01,2.427193081069536973e+01,4.484774928878522360e+01,4.021216486046001393e+01,1.450059816735603135e+01
1.157997523942739448e+01,1.467798207436596059e+01,2.388633074251542965e+01,4.095125249483255914e+01,3.490577437092481716e+01,1.475421109306370759e+01
1.246640001128517206e+01,1.366334406428491910e+01,2.154986177518867052e+01,4.518139600944524403e+01,4.186237738001108255e+01,1.386800123138889873e+01
1.096555198205209081e+01,1.453798678782203879e+01,1.899056379559246821e+01,4.127183275816031482e+01,3.660311527222465600e+01,1.510382937443033491e+01
1.227050809327698389e+01,1.387624136377402806e+01,2.098756662443779319e+01,4.655369560385389605e+01,3.709930998891021403e+01,1.481482007597810657e+01
1.190315057610136051e+01,1.445278913089674333e+01,2.034916572906405108e+01,3.981432449633413029e+01,2.823091095856201704e+01,1.478510923898487128e+01
1.166196051777318132e+01,1.377288164881927379e+01,2.062389291843478389e+01,4.534678242991918040e+01,3.408934705721349445e+01,1.448843783920041872e+01
1.281582416627804655e+01,1.476688561779602082e+01,1.924912838866474019e+01,4.821251138312012330e+01,4.541067797067229606e+01,1.421316398768963118e+01
1.232350382090701402e+01,1.435293481155268225e+01,2.064847107349669386e+01,4.279980804341248302e+01,3.671641586153904768e+01,1.500019365347722911e+01
1.225638359892391094e+01,1.506759913974122078e+01,2.063303231083192202e+01,4.176509058665342167e+01,4.927996281453493310e+01,1.493848830816265405e+01
1.154074486676947942e+01,1.411081860487245798e+01,2.341769152289097988e+01,3.985152609670537771e+01,4.399080717222477688e+01,1.364805246378164050e+01
1.144312102982998525e+01,1.437245457661297721e+01,2.012882443355104201e+01,4.575716020545053908e+01,3.666496004554879562e+01,1.438847438021397274e+01
1.324902110090225626e+01,1.421505608345824001e+01,1.919705912583984642e+01,4.425762995320453541e+01,3.882280329667567997e+01,1.522531522720111852e+01
1.226358514945937372e+01,1.469865554562464993e+01,2.588051932448618331e+01,3.949158015708478331e+01,3.401713622850188301e+01,1.442460751021527088e+01
1.222186668191790382e+01,1.483491136279068279e+01,2.617246218057404405e+01,4.163346813047736106e+01,4.534566426082454171e+01,1.540923246217899489e+01
1.230785191086456720e+01,1.425579678843848086e+01,2.337057890881245470e+01,4.410420168116154116e+01,3.161375899116250565e+01,1.503476693444001810e+01
1.235877557241844471e+01,1.437010389258982634e+01,2.013554850284513265e+01,4.490460956489707911e+01,3.394693503357527220e+01,1.448624126628479658e+01
1.193704956117482041e+01,1.470908781000238186e+01,1.543140548686258917e+01,4.164464640809133300e+01,3.861421834207010306e+01,1.429714945677567250e+01
1.258604478515564651e+01,1.452770013178779784e+01,2.394356272998928858e+01,4.599846343030204565e+01,3.592017980572501301e+01,1.460290532011293685e+01
1.119205019717115057e+01,1.374020053452214540e+01,2.102527527782143579e+01,3.935732243897437144e+01,2.926387721190642210e+01,1.369102749885925974e+01
1.257980990007457223e+01,1.389969722972108634e+01,1.855190398637772375e+01,4.131799042581017289e+01,2.312644965059785918e+01,1.425728507169571557e+01
1.118264618914622588e+01,1.471966785447026815e+01,2.005207392827217561e+01,4.346348435631731633e+01,2.790446923113210431e+01,1.504927217502902081e+01
1.118038973138284042e+01,1.399506436552860933e+01,1.852800602354483317e+01,4.290525110918287766e+01,3.302063361993782564e+01,1.480508087076346690e+01
1.203505683877851595e+01,1.339384810272366977e+01,2.497727289883320267e+01,4.425265077165752814e+01,4.060393921697563258e+01,1.477436302008495517e+01
1.163309827071438995e+01,1.489632937516299549e+01,2.632405335999752083e+01,3.961749981336271276e+01,3.041417721243259820e+01,1.530376542842818388e+01
1.190103890661846364e+01,1.298867328983378222e+01,2.530242707413869852e+01,3.867326320186639776e+01,2.916165028413392690e+01,1.485842987091342238e+01
1.110665911979388554e+01,1.527623024060662971e+01,1.449165005393463979e+01,4.060056835767419159e+01,2.719022637125481978e+01,1.453944865436750078e+01
1.125374297169247129e+01,1.598265452451634872e+01,2.150688605681523669e+01,3.987551530116652287e+01,5.396736459139245312e+01,1.481043460449169835e+01
1.196829564479876140e+01,1.484577894361353501e+01,1.611099526806203386e+01,4.080964073513871426e+01,3.712675004532272283e+01,1.445067316264913337e+01
1.115630038390300527e+01,1.518647963354220387e+01,1.610540420334482192e+01,4.394642631821989909e+01,3.648421511000098860e+01,1.150918715277646065e+01
1.335194801974781953e+01,1.536429137418468471e+01,1.913332813438230673e+01,4.334222426082822466e+01,4.555858193824746394e+01,1.292773516812289003e+01
1.492910132467763873e+01,1.487534705970388593e+01,1.770334869639743403e+01,4.665345356827140222e+01,4.680587127996570729e+01,1.202075882688223274e+01
1.436705817945994212e+01,1.433400750129263379e+01,2.095577056393943494e+01,4.870519988721156324e+01,4.545665771663430377e+01,1.163067801690049308e+01
1.505987378354608808e+01,1.554348351265315564e+01,1.893986098473849111e+01,3.965954634610466911e+01,6.145292754374837330e+01,1.115202168710283104e+01
1.324992572405170321e+01,1.597250125962921707e+01,1.772280443330527078e+01,4.039960525003212410e+01,5.933838001507233173e+01,1.213844365238561274e+01
1.521398636087158707e+01,1.563421458231834826e+01,2.181624147360277632e+01,3.852776968318032402e+01,6.702210349004278100e+01,1.295111147715494582e+01
1.463359671643626037e+01,1.519997884096568974e+01,1.937775441938375209e+01,4.527098363751955645e+01,5.740947646745618727e+01,1.247953233236595594e+01
1.376003364658973283e+01,1.464232558869812451e+01,2.216574703967208393e+01,4.446410006022598793e+01,6.160445411788616354e+01,1.384068432018998251e+01
1.495912147570789585e+01,1.506811713636935401e+01,1.653712069536236484e+01,4.620041368649954450e+01,4.489123679803372369e+01,1.127754191524221916e+01
1.498093134170503404e+01,1.466545104500105978e+01,1.753356173458243816e+01,4.440334595678484675e+01,4.278803341580062636e+01,1.115000056931689798e+01
1.472343630052118435e+01,1.440409729002330153e+01,2.184189570716145568e+01,4.498651070837071586e+01,3.354758173375824981e+01,1.141406790678688488e+01
1.402694682004539217e+01,1.612197915981193574e+01,1.644086640280056599e+01,4.801313418284335910e+01,4.640613106185196557e+01,1.228101931702958893e+01
1.476660126434376252e+01,1.419451023267680867e+01,2.122978967767846470e+01,4.205006130548762400e+01,3.553801552752297965e+01,1.150274878113627075e+01
1.429510288227892723e+01,1.478752902855872975e+01,2.232693742536422121e+01,4.044277594911150686e+01,3.826253845120490382e+01,1.151885711285914127e+01
1.419244782933137472e+01,1.418109957050506509e+01,2.228778513792921956e+01,4.489225268191083273e+01,3.083381156773778997e+01,1.234883617462384464e+01
1.487134025569413787e+01,1.445455766932369812e+01,2.380814492878624833e+01,4.803694303134229671e+01,3.561651866080754303e+01,1.215542943600857662e+01
1.492450033900442108e+01,1.433192406792342410e+01,2.247509628855423003e+01,4.832483871378205009e+01,3.484757918349863814e+01,1.164220854015399098e+01
1.468620995749571279e+01,1.509464363494380734e+01,1.693617805902932716e+01,4.298050358764749745e+01,4.428652874147100249e+01,1.209385827116632051e+01
1.477483435615382490e+01,1.563378962792365279e+01,1.376896418502036923e+01,4.900676046051556511e+01,4.201506370599375373e+01,1.204078851533092198e+01
1.467396544907299472e+01,1.358828589136725640e+01,2.219793053442794317e+01,4.220404526145572532e+01,4.512276850905988113e+01,1.130034181579033081e+01
1.465523165452351684e+01,1.543987316133417309e+01,1.455316111398139434e+01,4.916753804368333647e+01,4.626012996856280068e+01,1.218985216593469367e+01
1.460550306188831193e+01,1.506569237745860512e+01,2.186507205295506395e+01,4.368900383032399048e+01,6.133131495621545781e+01,1.258667422680957415e+01
1.465359827102929735e+01,1.434663318223988959e+01,2.206790857473370693e+01,5.182315415096405786e+01,4.318951686338969154e+01,1.157161188187160761e+01
1.409989896958165012e+01,1.454746022588573773e+01,2.136072464013345851e+01,4.717381792633742776e+01,3.285138528213191478e+01,1.221406206318817311e+01
1.144788659485310411e+01,1.424045181250292202e+01,2.293715039510142972e+01,4.532966203303319475e+01,3.576024071777151647e+01,1.340354771225491781e+01
1.112857538640639987e+01,1.484007365443645377e+01,1.374257302858697827e+01,3.839338243962698982e+01,3.647278056957947001e+01,1.225124884319772889e+01
1.124194039629323782e+01,1.506575815731050128e+01,1.467382164631855268e+01,3.741569615238564239e+01,3.290010706386954809e+01,1.239990997922321014e+01
1.189681371293579915e+01,1.488143842955908802e+01,1.573038819686324175e+01,4.013704459852101536e+01,4.414676218539359809e+01,1.189648588087666248e+01
1.158288526240512617e+01,1.562469583164551779e+01,1.842174784426087086e+01,4.365346385939260188e+01,4.664561725350016275e+01,1.205899065822521443e+01
1.175051784510916875e+01,1.390241128607525845e+01,2.571985193466245789e+01,4.070630334949289164e+01,3.427821408155791261e+01,1.205689004892094474e+01
1.233814357924310734e+01,1.468963056170294479e+01,2.135378553122118461e+01,3.957093509720623103e+01,2.880236817195783416e+01,1.500403855182641166e+01
1.236790626773620971e+01,1.377506670028449243e+01,1.905120066150724512e+01,4.071172092257706510e+01,3.133124663774220409e+01,1.432516220883862523e+01
1.181540497955983859e+01,1.435167872580789350e+01,1.934874768790232480e+01,4.422900877888071136e+01,4.107892634240850072e+01,1.456694348347521206e+01
1.248598506765577199e+01,1.332182497905761132e+01,2.444042911521479411e+01,4.217476726402765053e+01,3.979206383937183489e+01,1.452843109376219921e+01
1.125021092135759382e+01,1.427466748791643525e+01,2.097708674535569529e+01,4.231458175053798243e+01,2.703746988022784947e+01,1.551048479288506599e+01
1.169825112772972275e+01,1.451135798642261676e+01,1.945817083769845368e+01,4.464869706125904258e+01,3.784145411503348555e+01,1.431246104034915234e+01
1.180312362539727467e+01,1.518297578015599925e+01,2.462496626532657729e+01,4.001904628100968608e+01,2.928849513214375833e+01,1.440189376049285208e+01
1.130381854934224783e+01,1.401308948624661355e+01,1.807717466486007041e+01,4.102111790491974830e+01,2.770717310378655185e+01,1.475980947611172667e+01
