4.383988751455319743e+00,1.647968724623444814e+01,2.897420569357542774e+01,1.198077619931483717e+01,3.163222934953903831e+01,1.477165951480606587e+01,1.849633088938421110e+01,8.809959158788792877e+00,1.509166243789860218e+01,6.572426144433273976e+01,4.530755019169724562e+01,4.876503584640427391e+01,4.337161270282819281e+00,9.905551015214751231e+00,1.545218877170355931e+01
4.259125143491081289e+00,1.776833408069738596e+01,2.942761000219872614e+01,1.638103969099699597e+01,1.502445716140259258e+01,1.175186756446269598e+01,1.771164310529357877e+01,6.752680418446053601e+00,1.660601007601784573e+01,5.366065242859626494e+01,3.083840852318572345e+01,5.444829853879646464e+01,4.018144484227144986e+00,1.257525716733053045e+01,1.496432400167990728e+01
4.341483528384114443e+00,1.680925044512693489e+01,2.877940498268640823e+01,1.299246028986628509e+01,2.253619551880361982e+01,1.348256729354430661e+01,1.799952962071786544e+01,7.771192548379788789e+00,1.397281995416492251e+01,6.117767107992132480e+01,4.093618196806032472e+01,4.529360996700851416e+01,4.168944349451848552e+00,9.579153541628103952e+00,1.281796616558863278e+01
4.270516189082276703e+00,1.658119365159186742e+01,2.845777172618497630e+01,1.216180948771832249e+01,3.067133216752144875e+01,1.282505821117027978e+01,1.833384002979635596e+01,8.890071466435362169e+00,1.478602012730678439e+01,5.783225234076498111e+01,3.926747630603190231e+01,4.629561931492034432e+01,4.228773310754233350e+00,9.224897850669504962e+00,1.519925256458550855e+01
4.398921621374526580e+00,1.857748792977062990e+01,2.917284970361504293e+01,1.337563872367104523e+01,2.249288726995814258e+01,1.246428480838104313e+01,1.801885691504527287e+01,7.762277238460884909e+00,1.512975231994710157e+01,5.580264841434357237e+01,3.601812921652650346e+01,4.870602542771275978e+01,4.352386351706185152e+00,1.189008446114869066e+01,1.540239905670123299e+01
4.406976906852055009e+00,1.597427169711638939e+01,2.937797406866108929e+01,1.402654426104252394e+01,2.415848996741037169e+01,1.454435695991708144e+01,1.794556816229195206e+01,7.877438957833948763e+00,1.463855291646858348e+01,6.386669455906346116e+01,4.306759628731851564e+01,4.457224279505265940e+01,4.323946948895049047e+00,1.182546285396508701e+01,1.636727080496642017e+01
4.403384945926565486e+00,1.769931494076272571e+01,3.003952653898612724e+01,1.343147358404970504e+01,2.675194580209366890e+01,1.251633067252626752e+01,1.865967390486245137e+01,8.356869290911506098e+00,1.526472972567868780e+01,5.813784921150926266e+01,4.113080819123619847e+01,3.896115366553009096e+01,4.449339881709524214e+00,1.022129085854526664e+01,1.503739873284813022e+01
4.408186697530783960e+00,1.637908260559970586e+01,3.077882190224123349e+01,1.445715021124344268e+01,1.836538257025841148e+01,1.393361464689174412e+01,1.904108924917744616e+01,8.688552970339149084e+00,1.116290501904577859e+01,6.366877538023837246e+01,4.196046499611465208e+01,4.364581240141555440e+01,4.253990831567055153e+00,1.229898541754439023e+01,1.318285307748558566e+01
4.462570066557577597e+00,1.691407149115178044e+01,2.941296847874428266e+01,1.349989554709718398e+01,2.125798951841587581e+01,1.379734894973376491e+01,1.774014139908572574e+01,8.511615274530448971e+00,1.137968031085098275e+01,6.111993786620939773e+01,4.314856350593707646e+01,3.924598861505382530e+01,4.105895716665583173e+00,1.135980294268927615e+01,1.358177236490883999e+01
4.246456457205537660e+00,1.684448157289984138e+01,2.827755913466869941e+01,1.255459879229086440e+01,2.738204554544950398e+01,1.441169371977541225e+01,1.826623013945089369e+01,7.614754413302089908e+00,1.272718965560307325e+01,6.395739140899901543e+01,4.033613786905440435e+01,4.342946273203055796e+01,4.458547690589518275e+00,1.129378180311638680e+01,1.503576470161135603e+01
4.188685725512609537e+00,1.748976760110309314e+01,2.916895204066014458e+01,1.625445879837682384e+01,2.142993939793332814e+01,1.337670484384274516e+01,1.778961275230933126e+01,7.229471488985709016e+00,1.459813682327241224e+01,5.845273601545113706e+01,3.794037079660904510e+01,4.265062183792977635e+01,4.191140143531708162e+00,9.315409971767389052e+00,1.399493673965832485e+01
4.477473817283684099e+00,1.761660868984698780e+01,2.969886316003176674e+01,1.279912689326538811e+01,2.765775997796294305e+01,1.228621732557651569e+01,1.791474035100224427e+01,8.671046089115129973e+00,1.072710122442979142e+01,5.500252797879963396e+01,3.895692250800176737e+01,2.943871521674401492e+01,4.453590237070905289e+00,1.298213815567378582e+01,1.701064089072070118e+01
4.369442272795622806e+00,1.788124924188469222e+01,2.972953808303115153e+01,1.609305310643658160e+01,2.294122920268450372e+01,1.292326551115473166e+01,1.821295520569541537e+01,7.866736144638419859e+00,1.543478610315956523e+01,5.808368598758101342e+01,3.570041717407431747e+01,4.899269764623911527e+01,4.099516769830064966e+00,1.321879088593786022e+01,1.778662250781894016e+01
4.284677490950420164e+00,1.679580790660033429e+01,2.980768974269164318e+01,1.289282001778596154e+01,2.497367448525805855e+01,1.405270098878905571e+01,1.872845599696547225e+01,8.696069956228843267e+00,1.369520634044414820e+01,6.230435376060647457e+01,4.175616239763035509e+01,5.003156730331073732e+01,4.349955939557030860e+00,9.861186917153126785e+00,1.313286332333155926e+01
4.325703160830812521e+00,1.554478114894289220e+01,2.921737113490091531e+01,1.446284026692259417e+01,2.254027514844872115e+01,1.392133118990740925e+01,1.759979848574481665e+01,6.752127781089209080e+00,1.992865346700958185e+01,6.023037866553112707e+01,3.499147123548392813e+01,6.521339713566248975e+01,4.273610625119983020e+00,1.015503079213659809e+01,1.490360978336930842e+01
4.263846038801178295e+00,1.720545733783020736e+01,2.957826146057316663e+01,1.754208951617656709e+01,1.793482845758345690e+01,1.231611770936601680e+01,1.839588508593670824e+01,6.650820146339745165e+00,1.936805378989216564e+01,5.741597704570591532e+01,3.111973080097112643e+01,6.122881359307342564e+01,4.356241890770706782e+00,9.478005950767046883e+00,1.463567736989399926e+01
4.499584835591029730e+00,1.555073176887988851e+01,2.889169680938777418e+01,1.313236713404826261e+01,1.973885532884583327e+01,1.382100758392051887e+01,1.766620805767053781e+01,8.018839478108207075e+00,1.078049402783602417e+01,6.191073686239553808e+01,4.111998771983473233e+01,4.090242440188445272e+01,4.177881339214704504e+00,1.112444765515611600e+01,1.299229536719237466e+01
4.320763414950373082e+00,1.637704863022124968e+01,2.897485642696123875e+01,1.207704792064820865e+01,2.535500175385549326e+01,1.592358661043247636e+01,1.967125196124415254e+01,9.568976203588384521e+00,1.103802487982191849e+01,7.092151002562177098e+01,4.818573415115821490e+01,4.204387611397602598e+01,4.254366567249423525e+00,1.409918962169860102e+01,1.609855416973785935e+01
4.243963653510966161e+00,1.781217696517004256e+01,2.812654104516891351e+01,1.178428358288325128e+01,2.443744345330412671e+01,1.262529148071989660e+01,1.914735358939771714e+01,9.144962882353464551e+00,1.113661791082803454e+01,6.063090581969271398e+01,4.173131861844184698e+01,3.483036769064114679e+01,4.284628376461963484e+00,1.411531578306208701e+01,1.655689922867117403e+01
4.278757978694481601e+00,1.662924688394430106e+01,2.849939885481777324e+01,1.520464756652378746e+01,2.564404761854564896e+01,1.435985130609903315e+01,1.765172887236428068e+01,8.147248614395035560e+00,1.786755376884733337e+01,6.229928300955481291e+01,4.333021321275106175e+01,4.865695316839499185e+01,4.139566851608315723e+00,1.185930864291006337e+01,1.877411466199191281e+01
4.476239900996834997e+00,1.747534624878405651e+01,2.985377631866213832e+01,1.281618867950115792e+01,3.313294928697985142e+01,1.226999574252079483e+01,1.915516288208912599e+01,8.760146894422449648e+00,1.698227848112680860e+01,5.927126172734426035e+01,4.176271819765334925e+01,3.788792471081390545e+01,4.223498128496616211e+00,1.277278072146569343e+01,1.814341329001530667e+01
4.307979364205553274e+00,1.754087908304223475e+01,2.888187340371138845e+01,1.178227754652184345e+01,3.491662473151058066e+01,1.179863604286802925e+01,1.908649584607381300e+01,8.982836460197408002e+00,1.669555303190885098e+01,5.842508722805128230e+01,4.133658457856184043e+01,3.805773442072701584e+01,4.328679392427704720e+00,1.214949523668542852e+01,1.829525458014459005e+01
4.229836498129700750e+00,1.475549727393041621e+01,2.921557606143457875e+01,1.243543875671660714e+01,2.597017251786567016e+01,1.375075463723859848e+01,1.890356727690800653e+01,8.884693843964448945e+00,1.206626896828257500e+01,6.456573061837471528e+01,4.383739515205365223e+01,3.744436815766266591e+01,4.239584957607803517e+00,1.403270021638650533e+01,1.664389441756800636e+01
4.323750467091622696e+00,1.638794859823686068e+01,2.922404408475154014e+01,1.262176541453829337e+01,3.143864076052786061e+01,1.331593226581115808e+01,1.914429912714411230e+01,9.095824581650573393e+00,1.593904311565747989e+01,6.202913318723658875e+01,4.117010080464402222e+01,4.847118188744835265e+01,4.385617769582929704e+00,1.283217734132295895e+01,1.866888070678671596e+01
4.497046161376543338e+00,1.553524530441521634e+01,3.019374395797549582e+01,1.758136429761879427e+01,1.544014289409374285e+01,1.367943126877511872e+01,1.877240228190986926e+01,7.123724677327061272e+00,1.767812716474163537e+01,6.282822609957542426e+01,3.592525177272338510e+01,5.740429022207812437e+01,4.381382278906509775e+00,1.299431178139795051e+01,1.682559549972240731e+01
4.353892727794150375e+00,1.593177227011404362e+01,2.952181055198078141e+01,1.619160356374693421e+01,2.103697048045554752e+01,1.267159379026617572e+01,1.758866099208474054e+01,6.278465870294524187e+00,2.037237496061007036e+01,5.695690871744913863e+01,3.145628586150793637e+01,6.275514789850596742e+01,4.149432644445243845e+00,1.299647340238334614e+01,1.813140054566975223e+01
4.423043667419305436e+00,1.789783870888597406e+01,2.707371041316583415e+01,1.481593615957237020e+01,1.713313933688345259e+01,1.194300343225872751e+01,1.842513114913077388e+01,6.740899790769512734e+00,1.964551899228486320e+01,5.789526050583582162e+01,3.458422443924514766e+01,5.233177111555167471e+01,4.284674587077022423e+00,1.374786697790469603e+01,1.823959720174281784e+01
4.398847098468159800e+00,1.756130612889402798e+01,2.971349279680933719e+01,1.312792296529786640e+01,2.094253275759284350e+01,1.167779072191505207e+01,1.774271633562790029e+01,7.749377193694924060e+00,1.401035253848568374e+01,5.304044711323674477e+01,3.530979198609032466e+01,4.598120478056038252e+01,4.343127147725141413e+00,1.156041499949666118e+01,1.316489186767392816e+01
4.257461133894644867e+00,1.588790407459456056e+01,2.941099724728100639e+01,1.221775598496282278e+01,2.334123423069152636e+01,1.470624533534858713e+01,1.843841144120069231e+01,8.727939534764287188e+00,1.091762664288227747e+01,6.546342225626447942e+01,4.511756810174374976e+01,3.963036782868291397e+01,4.527477425305865388e+00,1.149413533864391646e+01,1.363314653182802338e+01
4.423145242052980208e+00,1.654286653234130000e+01,2.865201683119529363e+01,1.409683876311021855e+01,2.042670548300077726e+01,1.214439336103899514e+01,1.877240057745907720e+01,8.872356208373268771e+00,1.257592372979550355e+01,5.583353544646554667e+01,4.144146499832261554e+01,2.842412754166962685e+01,4.132196410948904663e+00,1.126212041964342347e+01,1.461960110282456426e+01
4.235907850955674903e+00,1.595862573084593627e+01,2.890173726402366583e+01,1.273893559357407490e+01,2.020416179827007497e+01,1.497959075302519771e+01,1.919708890576623261e+01,8.872605298725654066e+00,1.045767303106759272e+01,6.766226330293240210e+01,4.611545230160525932e+01,3.789782752291031898e+01,4.180994732474954567e+00,1.204290398090972758e+01,1.331401956042678947e+01
4.304608933232238144e+00,1.608501106272092684e+01,2.909231436531502624e+01,1.431213720033744252e+01,2.647960390857673829e+01,1.429908094699528753e+01,1.870052692625764124e+01,8.233855177964962024e+00,1.865871664633618821e+01,6.462488115094950558e+01,4.370736710196510444e+01,5.222960930602544494e+01,4.498037182682947943e+00,1.013441967705443147e+01,1.698875849094368107e+01
4.280918653784453909e+00,1.750595589092369408e+01,2.801418013834787502e+01,1.356102099872314248e+01,2.764826010049591787e+01,1.288059782926962704e+01,1.901169558832697959e+01,8.214450353859385601e+00,1.838957722066072620e+01,6.189018159778336070e+01,4.013962270067259652e+01,4.941335657778635237e+01,4.492821443234440437e+00,1.242134503254571953e+01,1.906960631603296363e+01
4.368917246014308198e+00,1.936230394436457658e+01,2.753424875124397886e+01,1.299753328521442519e+01,2.816958263265217255e+01,1.297765270152399353e+01,1.809068017823173591e+01,7.812984821369115984e+00,1.675626325308314080e+01,5.897414252451810057e+01,3.945967265340262742e+01,4.315857808412005170e+01,4.247079853213255873e+00,1.246231826608171644e+01,1.828368814290178079e+01
4.326015079991805123e+00,1.636711072684926194e+01,2.898733319157827992e+01,1.381843193617284626e+01,1.838900328951865148e+01,1.419293693086284591e+01,1.900361475575028436e+01,8.749037323253276099e+00,1.155228919024766654e+01,6.365238291637930956e+01,4.514707928779436941e+01,3.181259257055049261e+01,4.608409367037053173e+00,1.399327165961221020e+01,1.649525516409015680e+01
4.409229120156138215e+00,1.853901487120702285e+01,3.047826241937831782e+01,1.349190030841726973e+01,2.178255089541423217e+01,1.268947411765607214e+01,1.840759377298817512e+01,8.241269072825348374e+00,1.213467249020433592e+01,5.737138326528438625e+01,4.052522769669562308e+01,3.359605014657594779e+01,4.470248234020386846e+00,1.478116592158371922e+01,1.632408567418458034e+01
4.159326109706849905e+00,1.832973898539887969e+01,2.832078813308059040e+01,1.361114229249850638e+01,2.372782493548249150e+01,1.224069494736398767e+01,1.879761954220610320e+01,8.141406753511304828e+00,1.495839224146180513e+01,5.838545835499482450e+01,3.884027465758904185e+01,3.896655728522944884e+01,4.193685424435686926e+00,1.392243334280813372e+01,1.776654270208184627e+01
4.265423946663378096e+00,1.387215383675034808e+01,2.773827670920404387e+01,1.284774340703842732e+01,2.787847183085553837e+01,1.046304835468292005e+01,1.853648716455062839e+01,8.390283042635291011e+00,1.555472979390237853e+01,5.573398221132590891e+01,3.740633347259186081e+01,3.609916041819539601e+01,4.069347776169394137e+00,1.297215428560943451e+01,1.790249799858311874e+01
4.415917284270480359e+00,1.400024761666758977e+01,2.969251443996231643e+01,1.346901053456960540e+01,3.008034566133436272e+01,1.268223861505654604e+01,1.873799966742108225e+01,8.763455861444148454e+00,1.722574189293055369e+01,6.013363781775618122e+01,4.208923156124311049e+01,3.954190987313666739e+01,4.204553537545359987e+00,1.268750577894384790e+01,1.823490062865186445e+01
4.336059862776544982e+00,1.298399027625157665e+01,2.994099980323034416e+01,1.292643169387098823e+01,2.879208244338077449e+01,1.025689236708014640e+01,1.903770513701211797e+01,9.191612479775283617e+00,1.124589089676550557e+01,5.305995742433378126e+01,3.468732769607854749e+01,3.078655292511338359e+01,4.271309887812979156e+00,1.334631567513090999e+01,1.679510705864614550e+01
4.562203203734410906e+00,1.847949421690898930e+01,2.824881069958320978e+01,1.246987636971286229e+01,3.078800701433068099e+01,1.232315337873797922e+01,1.913769766126637251e+01,8.900722934500306494e+00,1.458862677724577317e+01,5.902343068429813400e+01,4.215611806922261451e+01,3.257279171036732635e+01,4.210257688963348954e+00,1.298690771897252105e+01,1.787131102713474817e+01
4.376119588951502770e+00,1.805539237366591721e+01,3.099360622207316496e+01,1.461797306163856547e+01,2.807020763293806098e+01,1.237722162048977737e+01,1.781297202883073894e+01,8.080782100968619375e+00,1.283903153649396423e+01,5.429855794328644691e+01,3.746446203727794710e+01,3.190313052604594901e+01,4.531324045248974031e+00,1.322829498156224837e+01,1.804086151754237832e+01
4.323400614144505383e+00,1.778525046606289806e+01,2.901225249411297469e+01,1.649031451911489654e+01,1.776583640043561374e+01,1.154497213738479999e+01,1.854730288874059596e+01,6.287872007364062377e+00,1.853779316513803366e+01,5.451786047282658387e+01,2.827580458365524407e+01,5.771130969579932923e+01,4.387876333643043303e+00,1.379384197897242359e+01,1.733184291751938133e+01
4.236369989828274285e+00,1.661909773450051730e+01,2.958142949650363462e+01,1.692238281999009430e+01,2.041278439099989583e+01,1.381222493001576268e+01,1.827619617439054167e+01,7.171375150911304175e+00,1.869545482314051554e+01,6.222701991890332351e+01,3.737662847616078210e+01,5.844569202108185380e+01,4.162256276736211902e+00,1.200674001337764629e+01,1.739182980521600541e+01
4.377087571401496291e+00,1.742410117399258240e+01,2.861227882007162293e+01,1.469991877654404533e+01,2.384281809053581469e+01,1.282030947667825949e+01,1.846509748525804184e+01,7.050817323494624311e+00,1.683634654229821592e+01,6.026517270915373103e+01,3.624715601094540318e+01,4.784735759288479073e+01,4.404953869378216424e+00,1.355312535035282018e+01,1.795437569904609276e+01
4.413989129490756724e+00,1.621060326869753254e+01,2.976342686250564640e+01,1.581074579305615657e+01,2.415092217233026517e+01,1.401024883723761150e+01,1.874219282461888980e+01,7.504978482512743909e+00,2.047561419714000408e+01,6.366302274736644051e+01,3.798876004104769777e+01,6.382149612455800991e+01,4.321396411969424811e+00,1.188363749313062279e+01,1.810406747363823143e+01
4.447851768832435049e+00,1.722779036123147023e+01,2.980888974473961284e+01,1.715060210684874420e+01,2.111703137228861493e+01,1.245394524696792615e+01,1.876313934315870924e+01,6.594227400724738786e+00,2.271379548870869769e+01,5.762566650812497926e+01,3.082602983934913610e+01,6.733116408431065736e+01,4.350619998897806262e+00,1.294562020656067602e+01,1.910210705363300931e+01
4.333164211773427255e+00,1.854751210513219917e+01,3.004691472484141457e+01,1.595213618841415482e+01,1.885657918755964246e+01,1.280114647840576225e+01,1.817394395167745458e+01,6.287225796767477171e+00,1.515079552270509389e+01,5.717910993007440368e+01,3.282046224644874854e+01,4.554839156817692469e+01,4.368788320297757544e+00,1.344415785460757817e+01,1.578241213822170508e+01
4.224172563797167435e+00,1.526098969015276907e+01,2.997733156934393861e+01,1.258436307466359239e+01,3.004036347144378993e+01,1.410268030245061865e+01,1.909614201479884343e+01,8.951714267592370433e+00,1.284483475952005271e+01,6.418221064370295892e+01,4.261374581962994057e+01,4.243088315336449057e+01,4.551338096216629658e+00,1.240691351358059613e+01,1.709843536826325305e+01
4.111099843374104168e+00,1.537509435997072238e+01,2.820928638629907681e+01,1.137120523857299403e+01,3.151792999452589328e+01,1.059137077485583234e+01,1.874646664512728478e+01,8.451881825479418353e+00,1.427333677352856256e+01,5.310894526776002067e+01,3.432340250171267826e+01,3.561304994698510740e+01,4.536058030738931990e+00,1.336822243053822490e+01,1.848741719717976295e+01
4.429391862546697922e+00,1.405472583753503812e+01,2.898129504612318286e+01,1.343306749831638847e+01,2.485089143953892332e+01,1.097129099944756803e+01,1.874714937642380619e+01,8.584554102016589638e+00,1.170784999273996618e+01,5.588934493900100620e+01,3.434558037782239381e+01,3.783196129899576476e+01,4.390523607074287682e+00,1.373957785187292835e+01,1.709838542386823690e+01
4.529292055205279333e+00,1.435614089554420048e+01,2.920812959620724314e+01,1.229030771539870059e+01,3.049670013543554603e+01,9.011645555683911013e+00,1.873292116927376583e+01,8.614976308477590550e+00,1.306457132013430211e+01,4.849679339349136598e+01,3.088669211547226823e+01,3.198712540878576505e+01,4.393084801151116103e+00,1.296548126104094578e+01,1.738661502855216767e+01
4.048707321251717062e+00,1.309818007552843255e+01,2.946467539956970327e+01,1.516626697199186502e+01,2.372628095382330571e+01,1.288689296988631128e+01,1.888638200587224958e+01,8.091921913842327285e+00,1.844588111608047853e+01,6.245711347394133384e+01,3.844417126209678770e+01,5.533631972811678423e+01,4.295117592554388963e+00,1.254643488542644292e+01,1.813184180474740614e+01
4.236749368166005780e+00,1.274709305775125756e+01,2.883237146569055298e+01,1.284939422102639206e+01,2.274706971623933782e+01,1.022601637721036028e+01,1.795593980824346403e+01,8.428032677491067659e+00,1.287272737858656413e+01,5.213274180602529384e+01,3.279991554332953996e+01,4.296971091386624408e+01,4.311349732339034624e+00,1.025489647193886711e+01,1.365609445898310881e+01
4.221323029589726161e+00,1.612070116208557025e+01,2.902908330350848942e+01,1.396393882341787318e+01,1.713500149308847398e+01,1.026547472021866447e+01,1.782754275822989598e+01,7.605421382876757619e+00,1.477147567873477563e+01,5.123703624543389878e+01,3.270743260890363757e+01,4.586833058184456036e+01,4.385952810495082232e+00,1.063346756271128335e+01,1.255983814784555719e+01
4.433312713343546818e+00,1.284075955946372360e+01,2.975879609628518807e+01,1.719030478427048081e+01,1.919613918179895506e+01,1.164700053969703930e+01,1.773285235791607306e+01,6.715888993074456081e+00,1.733006571217801195e+01,5.741239404171938077e+01,3.402218099645764937e+01,5.093981130726556472e+01,4.259845986772849535e+00,1.004444239645054893e+01,1.525893730204523280e+01
4.295792353156133281e+00,1.359946052414835549e+01,2.869153154504663306e+01,1.156876049500762882e+01,3.091255324102737490e+01,1.047891595670031073e+01,1.974082505391030651e+01,9.280294682078249480e+00,1.326643465462119309e+01,5.726767544692925327e+01,3.704345350587951913e+01,3.633462582632889593e+01,4.467963216204026367e+00,1.124258722948402855e+01,1.573515612011552101e+01
4.261097645722099259e+00,1.525132850765045411e+01,2.940775303703960475e+01,1.311268053611761530e+01,3.038041120181334520e+01,1.156299527473108135e+01,1.835082461100506279e+01,8.833276521787778890e+00,1.365184893505558428e+01,5.619404377059208144e+01,3.795096836752797742e+01,3.857622403206315198e+01,4.316534074289701373e+00,1.038742454324147957e+01,1.606941375931960181e+01
4.512676633135493276e+00,1.481599700716637003e+01,2.954062564325612783e+01,1.567686550126787282e+01,2.350621277562909128e+01,1.139863348210625915e+01,1.802919300268468561e+01,7.581782616582989576e+00,1.667311686977591378e+01,5.617844803560582534e+01,3.396532837340547673e+01,5.120153333203548840e+01,4.075051765638302292e+00,9.956137674019945649e+00,1.520459278941457804e+01
4.359577272259794078e+00,1.268896130874250261e+01,2.823214299469916355e+01,1.136756530430679391e+01,3.194323094084403536e+01,9.668700253379807208e+00,1.934015408055593355e+01,9.102170120371265938e+00,1.417954909918890571e+01,5.260234837966375920e+01,3.356144038512881167e+01,3.687563530645740428e+01,4.273650313475057416e+00,9.810406461834356051e+00,1.493177184015721259e+01
4.262830279814709300e+00,1.292840823284369556e+01,2.801067494491381638e+01,1.231374465769837201e+01,2.888018548959630039e+01,1.150884013474896150e+01,1.896600197283005684e+01,8.645155271891155735e+00,1.269253590527568321e+01,5.807602278948571950e+01,3.534472659413153650e+01,4.195112676635395133e+01,4.332022865431023106e+00,9.453990468142951187e+00,1.341423467607036635e+01
4.412523612245048632e+00,1.279137187516941765e+01,2.797166459713789877e+01,1.208280476883490806e+01,3.145239831183343426e+01,1.034732212450468580e+01,1.845697451971502900e+01,8.093543941930096963e+00,1.492248962284322644e+01,5.075461106834369929e+01,2.917861130240279266e+01,4.432599644561933872e+01,4.241515611905965599e+00,9.798735556099005706e+00,1.505860105700316254e+01
4.325352346418708471e+00,1.443227054140857035e+01,3.115746012488931527e+01,1.379396071036037696e+01,3.238948589716017779e+01,8.981009062374180729e+00,1.909342318129689531e+01,9.699073634547220379e+00,1.379235136928663330e+01,4.728724073957673824e+01,3.449453411983189000e+01,2.748084027219097081e+01,4.378639540072205349e+00,8.997197740233895402e+00,1.509530106014624984e+01
4.319679797950271904e+00,1.489988897934987655e+01,3.001313444361688454e+01,1.502704627720271979e+01,1.779749951498752480e+01,9.331486451611352706e+00,1.771826029835795069e+01,7.808336603726928615e+00,1.165518578290260621e+01,4.726426960876987948e+01,3.313767708474505724e+01,2.755988145176883108e+01,4.327523821498812318e+00,1.149371871013930679e+01,1.390162329282132347e+01
4.206546698632983805e+00,1.463678881729386205e+01,2.846017566008433874e+01,1.308186655135148868e+01,2.396552925213283203e+01,9.221577662492837391e+00,1.847750090048901939e+01,8.647869042179742394e+00,1.621391306056907311e+01,5.057992691496319537e+01,3.558323902643895309e+01,3.760123516268001964e+01,4.274232260919157866e+00,8.801467936252144852e+00,1.351836164070229351e+01
4.498438603516671463e+00,1.437927605032390588e+01,3.025208798985199365e+01,1.301771656260994448e+01,2.417563049711467826e+01,1.184925386131523339e+01,1.925625445122830826e+01,8.793447648756048451e+00,1.236140417921585488e+01,5.959100959927533836e+01,4.078661013814716796e+01,3.449645648815200616e+01,4.460830084611265178e+00,1.020241378670671395e+01,1.309763806926975960e+01
4.100571109005608506e+00,1.393845576934866060e+01,2.733912589706957874e+01,1.080033205405503871e+01,1.982496656292412140e+01,1.220038933999303588e+01,1.920785843353921152e+01,8.366659272806341363e+00,9.456753416588110639e+00,6.110366404287082531e+01,3.980113594213175077e+01,3.029715655384232065e+01,4.535741545563582555e+00,1.229930655217675017e+01,1.307454430863182537e+01
4.175803452623973122e+00,1.392864842633406042e+01,2.808815239957414889e+01,1.211629201368459441e+01,2.852122193555102925e+01,1.259103534265276814e+01,1.964591321706197746e+01,8.991728652333442540e+00,1.479362770626086565e+01,6.105047859398008825e+01,4.179572308812433334e+01,3.913661926580648753e+01,4.400155170024502738e+00,1.009562439515217136e+01,1.532558749269476728e+01
4.523655347368178425e+00,1.388979087747428309e+01,2.738717480036984142e+01,1.137842704983406605e+01,2.882312315266063507e+01,1.090683766303668989e+01,1.843054290051209421e+01,8.711404380444589535e+00,1.477973855574204443e+01,5.563504529689014788e+01,3.823654913311947467e+01,3.694845588758145993e+01,4.270786800799694305e+00,8.919013459878776473e+00,1.448672931312284895e+01
4.247027971788102541e+00,1.341301718730966108e+01,2.835724813266423538e+01,1.245931026586039891e+01,3.035958930868944350e+01,1.181505818131224750e+01,1.877176920017474515e+01,8.983763202930765246e+00,1.629138362384703598e+01,5.852354350943645755e+01,4.068804970890109729e+01,4.060784159722340547e+01,4.340479589228011470e+00,9.775488637334085240e+00,1.634566669062700228e+01
4.301253343529113593e+00,1.393009702597335675e+01,2.912085507721546307e+01,1.197655569479146465e+01,2.965842221724400929e+01,1.228572757529836856e+01,1.893078642739451212e+01,8.976025652752831263e+00,1.488664830148251106e+01,6.132134263496624271e+01,4.134768454887081646e+01,4.411583557424612678e+01,4.506208335985151692e+00,9.180053173580317250e+00,1.448749736154718626e+01
4.392296996645167262e+00,1.508936637208315901e+01,2.900337308181567053e+01,1.522467055229029320e+01,1.981466925188507133e+01,1.065103586612578468e+01,1.829350786161092302e+01,8.143854880871684188e+00,1.519653027183508343e+01,5.476398120301566763e+01,3.625308949070283404e+01,4.223593450544387196e+01,4.169356949893888498e+00,9.990163866452355990e+00,1.431745091233276845e+01
4.279753039627861355e+00,1.280601138463977229e+01,2.854637655453002409e+01,1.564629530583993855e+01,1.460837548299335253e+01,1.081110599721450605e+01,1.846819010883977441e+01,6.928781310076569611e+00,1.779252598639608607e+01,5.517943951037432271e+01,3.449937419332748334e+01,4.570168780480764070e+01,4.582091759193533953e+00,1.169934834823069814e+01,1.481958326575568918e+01
4.246576916762085041e+00,1.404432302143957756e+01,2.887886104104220664e+01,1.659884736343506972e+01,1.731725260123899091e+01,1.095189697264855511e+01,1.768805399718480942e+01,6.200045435100975055e+00,1.851070875460814236e+01,5.450404553790456674e+01,3.108845245733330742e+01,5.335408668282178724e+01,4.088799257921238883e+00,9.884504813139884050e+00,1.435413827317994873e+01
4.534693253669059843e+00,1.683045041712075118e+01,2.944727039712251937e+01,1.703225165103560812e+01,1.558247486159519823e+01,1.354921711874532697e+01,1.841035256209143611e+01,6.200947390214984090e+00,1.794617107275219325e+01,6.162762873498250826e+01,3.369113241050571617e+01,5.911459524428813950e+01,4.584583545803463167e+00,1.009409379019618846e+01,1.432659856415916977e+01
4.335928014449401680e+00,1.619810160036912805e+01,2.966164665628525654e+01,1.643309926042756075e+01,1.449509413940697655e+01,1.320902357028174201e+01,1.913898217740020158e+01,6.383713073429900575e+00,1.766587804725198296e+01,5.975686090531185357e+01,3.215826197108709295e+01,5.576439069686168182e+01,4.440611717237544553e+00,1.128156821251417341e+01,1.404857706850687471e+01
4.760921153097024572e+00,1.579983701525603834e+01,2.810231072583905743e+01,1.270022497199252420e+01,2.108297190081815842e+01,1.223137589505285128e+01,1.953215586707471374e+01,8.609544245510168281e+00,1.194097476888823373e+01,6.134280055564811107e+01,4.117762729688046619e+01,3.507298020982204889e+01,4.204207057636539346e+00,1.045598305516253568e+01,1.276659286697874229e+01
4.506653190664174247e+00,1.643688871285652553e+01,2.981612980199191298e+01,1.381712686041599980e+01,2.610472112350764462e+01,1.264790568073256871e+01,1.844998154501426058e+01,8.774295818646727696e+00,1.523053521451881664e+01,5.821264594934449121e+01,4.245301350453880218e+01,3.735042286054386551e+01,4.237599979556576635e+00,1.020312871327624116e+01,1.497038417194657356e+01
4.390531480657668517e+00,1.721133908119145772e+01,2.990791222548154948e+01,1.280505781740394156e+01,2.339408471793389310e+01,1.224805717225690316e+01,1.757469908049899132e+01,7.980655784547721510e+00,1.275145932408329585e+01,4.827265421400854706e+01,3.222679582748066451e+01,4.661995397393855711e+01,4.307967593979181053e+00,1.159641534116678763e+01,1.307819038672787215e+01
4.461127241715122871e+00,1.595706296808362801e+01,2.825114895159260797e+01,1.274020022840435828e+01,1.951237265715580804e+01,1.393768207600906806e+01,1.890068115365428625e+01,8.515379201816418941e+00,1.020855946022265393e+01,6.498197952309283210e+01,4.203555447206731088e+01,4.073695036312089002e+01,4.471097617907314081e+00,1.066548026544671401e+01,1.294360264565932539e+01
4.284184384810432178e+00,1.672863267440809665e+01,2.827758172893642552e+01,1.380600627130573699e+01,1.688807599618116484e+01,1.257113267416617930e+01,1.905893784895244281e+01,8.957354599322275845e+00,1.131890308020653535e+01,6.112213887915076782e+01,3.992330083840223409e+01,4.220039364614119393e+01,4.234758951432493923e+00,1.102041481245789534e+01,1.317668836598092597e+01
4.135775216986955272e+00,1.677492514071400365e+01,2.882752043363990779e+01,1.409985600459963706e+01,2.411878226779290202e+01,1.279967502322287132e+01,1.792891742369017294e+01,8.154402809088159287e+00,1.219926145559867869e+01,5.813164166894355134e+01,4.088750707369027282e+01,3.453695114978558678e+01,4.154277352845619831e+00,9.599570728355280025e+00,1.381376070032815484e+01
4.337189535027965448e+00,1.738009042947229688e+01,3.076982243214041546e+01,1.700327680318848067e+01,1.700942777049331411e+01,1.135056820096391128e+01,1.816367572423401811e+01,6.407878993623382868e+00,1.431428940111089076e+01,5.237852842209979798e+01,2.761883443877268363e+01,4.958407584451671823e+01,4.319056457870372512e+00,1.060791816259354192e+01,1.331983993430596414e+01
4.253117122253736504e+00,1.643247264364928029e+01,2.675026474929862275e+01,1.449304293096224683e+01,2.199556112970019583e+01,1.214686441828921382e+01,1.871493330814770673e+01,6.960744634364436578e+00,1.600239283281418423e+01,5.879662516510602188e+01,3.271774004042372042e+01,5.253425503341337333e+01,4.298666065683763193e+00,1.095326032232325275e+01,1.460852310121434527e+01
4.197321133067688059e+00,1.632639937239886052e+01,2.683812657098888366e+01,1.362780534216837758e+01,2.255753920810242974e+01,1.444984637009412154e+01,1.781300819873380803e+01,6.221844624025949955e+00,1.702685494319954529e+01,6.404791668558057438e+01,3.780066716555953832e+01,5.480633357320226651e+01,4.424440049915844497e+00,1.007814560413545912e+01,1.488744833303400661e+01
4.413446996985089577e+00,1.595701863098262407e+01,2.924063296046551130e+01,1.694458008170377639e+01,2.207183025790589070e+01,1.366824844488840895e+01,1.848718489252057395e+01,6.898480244193669897e+00,1.633877352428423535e+01,6.220761397083511213e+01,3.539841165701375303e+01,5.637885524541408699e+01,4.333811399253967522e+00,1.004008179971156700e+01,1.426944291408056564e+01
4.372635140071474247e+00,1.682244949009582413e+01,2.842750082984391469e+01,1.166822557888777112e+01,2.923013145685338543e+01,1.348149147523513491e+01,1.864177562381414432e+01,8.975371660204151780e+00,1.258662316385318114e+01,6.158527968590017565e+01,4.335090687845431745e+01,3.744077822608750239e+01,4.234864976311651930e+00,9.400818211719428774e+00,1.399485893416553495e+01
4.198708887295940606e+00,1.615171010166800514e+01,2.962655022734351462e+01,1.289425835463084447e+01,2.286612402173837921e+01,1.246931028096436478e+01,1.784955454980841694e+01,8.450243921623542320e+00,1.234243229621854177e+01,5.686925102612021021e+01,4.008375884353672092e+01,4.132076678382181001e+01,4.194097091832461821e+00,1.142707112512746370e+01,1.275267249053828955e+01
4.450731960670887943e+00,1.600022587284830067e+01,2.882132139356585654e+01,1.284054852016714854e+01,2.295136607470725920e+01,1.423241900191398202e+01,1.875548618346032725e+01,8.927739056053411559e+00,1.225363953580805543e+01,6.516712122186365264e+01,4.377296003232304855e+01,4.477596282392643445e+01,4.225675148592202390e+00,1.092097081230631517e+01,1.403368192601382169e+01
4.415885798998544942e+00,1.764642777661644146e+01,2.858828985698012559e+01,1.439978235919915051e+01,1.902698036783197821e+01,1.215285622652523756e+01,1.819370995059077245e+01,7.381436968972168167e+00,1.551617352666699645e+01,5.622658648585684915e+01,3.257570538459140863e+01,5.197811467551544951e+01,4.617430701354503064e+00,1.221209017190320978e+01,1.645671515699040910e+01
4.360145569425680989e+00,1.647837292098801498e+01,2.953536440197216706e+01,1.719908816546089270e+01,1.784006849457679067e+01,1.266260158883918407e+01,1.949285599840059291e+01,7.043572919389604614e+00,2.031632401897938678e+01,6.191897244507815401e+01,3.613473437000131838e+01,6.009084408498559071e+01,4.254577048793550809e+00,9.845307834291276095e+00,1.479947524595053565e+01
4.249865004850033046e+00,1.634337687444998011e+01,3.065591650253151101e+01,1.718132240462934845e+01,1.838761795032015556e+01,1.455056922072495951e+01,1.843719666640236454e+01,6.537788904144299806e+00,1.542386877806150558e+01,6.395131401493910772e+01,3.638167578208873465e+01,5.529447717891695646e+01,4.461754514203018829e+00,1.100023718301180509e+01,1.451179582658769363e+01
4.571065910422424494e+00,1.820128506339410279e+01,2.982880166278089007e+01,1.727463820690826068e+01,1.578028439153382756e+01,1.302247550213945004e+01,1.796431596288620369e+01,6.102986814244246716e+00,1.404607781375999309e+01,5.664739422775862465e+01,3.252786021826268126e+01,4.158515258182373486e+01,4.356072242495200975e+00,1.127435085865412034e+01,1.338139543190528080e+01
4.299435961044068222e+00,1.792308608023200733e+01,3.068799160414294036e+01,1.550854786221831638e+01,1.947763102861572548e+01,1.173700258438464417e+01,1.960096143828167925e+01,7.749252687765196157e+00,1.837746452496408978e+01,5.778336047452685165e+01,3.534320058144227517e+01,5.559818778048843768e+01,4.393287357201768550e+00,1.068277244740232490e+01,1.392292739569470150e+01
4.256383208935178075e+00,1.810659855944668806e+01,2.934895462818611378e+01,1.284045533149638985e+01,2.716497303339386349e+01,1.279063625428468676e+01,1.837008356277985399e+01,8.248168102482837938e+00,1.672792851645385426e+01,5.744721562308512830e+01,3.873549530924375262e+01,5.243164804980358440e+01,4.223226428829609524e+00,9.159742307600343025e+00,1.356828427068995602e+01
4.319075783472334784e+00,1.685346794181506169e+01,2.997378518313155027e+01,1.281332907696673473e+01,2.834266862352568239e+01,1.249339351220705296e+01,1.936321669075163499e+01,8.910327433350467174e+00,1.183484365302248520e+01,6.090895659248715077e+01,4.240047350039017715e+01,3.411360286221785998e+01,4.357691313456879101e+00,9.989302276180611173e+00,1.370558188599185456e+01
4.274855354195603141e+00,1.589854922126290404e+01,2.977504075777413561e+01,1.338851786191269255e+01,3.077224199844458852e+01,1.235422694161959001e+01,1.788758179425118655e+01,7.937566973530284287e+00,1.491943587086958445e+01,5.580562127556291330e+01,3.595698509829916389e+01,4.398025649503195211e+01,4.307658120389457501e+00,1.058212113610568572e+01,1.627197621259518456e+01
4.610357426435065520e+00,1.672531742708475377e+01,2.915713785469456454e+01,1.553478932428469328e+01,2.269841036318253913e+01,1.259264433356722179e+01,1.778775812557598357e+01,6.780208379578920308e+00,1.338518963662676242e+01,5.803616019304141815e+01,3.626235413275600905e+01,3.657421631745733492e+01,4.232900463664067914e+00,1.203388003648611182e+01,1.479729807409403186e+01
4.373359043924080147e+00,1.675651911655923598e+01,2.792661336029857111e+01,1.304241975887727456e+01,2.419190740734523715e+01,1.301714838447304601e+01,1.804461993389619323e+01,8.155393330921887340e+00,1.091008617422620475e+01,5.967200358914232083e+01,4.165813886867258020e+01,3.088858979378787950e+01,4.297250782669491898e+00,1.175739609535501096e+01,1.503740506132650445e+01
4.202060369540669527e+00,1.709379743957847708e+01,2.864856000287376148e+01,1.304391693711946587e+01,2.806457749592078343e+01,1.230064762044225368e+01,1.743274198588463264e+01,7.778603018280842996e+00,1.250251171747745005e+01,5.574147030010823300e+01,3.907571222401767130e+01,3.096053379603022293e+01,4.249856351034365431e+00,1.116200345343290223e+01,1.561242469526237109e+01
4.464670420564682551e+00,1.590479696057961689e+01,2.995925108169892326e+01,1.208696731924168510e+01,3.750260931735541448e+01,1.472035200164056690e+01,1.988106027262988817e+01,8.570799335907597793e+00,1.821592234701312663e+01,6.645597428946585694e+01,4.223208130980246011e+01,5.661897441694057420e+01,4.389914821103145570e+00,1.001779892775638459e+01,1.633452196793707856e+01
4.486940997048492363e+00,1.581177631477436307e+01,3.085647606581698099e+01,1.375634809238908041e+01,2.777388974715231384e+01,1.426168108096023524e+01,1.809119697956725048e+01,7.224552258140659156e+00,1.172694017666043642e+01,6.281000430688057179e+01,3.973388472158279683e+01,4.026180550800574309e+01,4.431239047383520813e+00,1.026428264738157559e+01,1.318641894302697182e+01
4.400779204952188550e+00,1.683962409962887108e+01,2.870697148835353829e+01,1.144559287868850816e+01,2.956404006955187924e+01,1.408037680191544005e+01,1.874636859644600051e+01,8.045945825683750385e+00,1.226358064160520733e+01,6.287997722303839510e+01,4.051868760829130878e+01,4.126150074983805638e+01,4.401768904400753968e+00,9.895963769143829580e+00,1.349799515011251216e+01
4.596537728324034511e+00,1.897541513842051941e+01,2.990912959229327939e+01,1.302452141314764589e+01,2.877770490892847022e+01,1.204620446225083086e+01,1.853759556348104809e+01,8.755720477182499906e+00,1.158249955811243659e+01,5.615298927083053826e+01,3.997669890942933790e+01,2.924358722786560350e+01,4.478766354414748463e+00,1.161662828259038704e+01,1.590126388731084184e+01
4.494362336455859364e+00,1.617822016442787003e+01,2.866220746174632694e+01,1.278391848715380519e+01,2.925895830834390310e+01,1.253861172519790301e+01,1.870390985483753354e+01,9.848744214105369821e+00,1.169832717568286995e+01,5.958936801275936546e+01,4.386389804293646932e+01,3.327284706692574900e+01,3.931781080356588021e+00,1.130737722111070198e+01,1.588033766845132710e+01
4.423641143316724644e+00,1.613933632666555340e+01,2.949194276904006529e+01,1.363918999824384315e+01,2.686125651394778302e+01,1.326700798713571494e+01,1.815256963897382292e+01,8.693376058231855552e+00,1.166739762893219279e+01,6.081423726109081684e+01,4.321913984280747201e+01,3.490186899931920550e+01,4.163335824540459029e+00,1.047698720469474054e+01,1.472474422129336169e+01
4.626304270238422944e+00,1.592172513239762388e+01,2.916337740509442966e+01,1.268036762554148922e+01,2.951178795286768874e+01,1.321692047820868332e+01,1.818032134877110906e+01,8.701412453241561096e+00,1.225864126725404724e+01,6.153958883780293121e+01,4.275118678265157968e+01,3.738115267980826673e+01,4.314843944261488318e+00,1.090439428001438138e+01,1.573601582966335322e+01
4.276131877805245729e+00,1.702836028334889562e+01,2.768376106046802576e+01,1.243350323533327639e+01,2.725832832513794912e+01,1.218137366538375588e+01,1.914803132227266858e+01,9.076761812791533046e+00,1.180238067167430316e+01,5.943875331065905243e+01,4.227208748367924329e+01,3.217726192049884304e+01,4.367720354980357378e+00,1.078863650711654110e+01,1.457609578387014970e+01
4.159192066590851056e+00,1.747675225118641862e+01,2.881722195490853977e+01,1.276591082011366396e+01,2.980084684810964291e+01,1.182848018142406943e+01,1.871940418417939611e+01,8.702935808702997988e+00,1.415229766172584114e+01,5.673947354984883162e+01,4.068272653104827441e+01,3.344027029076951862e+01,4.356517821683776326e+00,1.006703338013802984e+01,1.559093362439110564e+01
4.534522449930463495e+00,1.812386948933425757e+01,2.933471480730716863e+01,1.234372921104272969e+01,3.079765532577448894e+01,1.273862077927132930e+01,1.810068738648607933e+01,8.669786219071831113e+00,1.295937390779065090e+01,5.808581644762199403e+01,4.147320889786373499e+01,3.601792505432135982e+01,4.468107828695915273e+00,9.399848987068210704e+00,1.510799753729626005e+01
4.548621385790481142e+00,1.653839102487793156e+01,2.959551547379145120e+01,1.754236126604684998e+01,1.744791150497641397e+01,1.249766364377202521e+01,1.861150670986784661e+01,6.723058384710649094e+00,1.554434561826893102e+01,5.888570526087960388e+01,3.466311367737017690e+01,4.277489819276541994e+01,4.285615595842411807e+00,1.227184284755325194e+01,1.498090372057365904e+01
4.295556999796801279e+00,1.757360154101503724e+01,2.872956794278736936e+01,1.585111395844439386e+01,2.144060773965869160e+01,1.294557957455258013e+01,1.895832988320695733e+01,6.628821533238220987e+00,1.801666012804095729e+01,6.120476527634232156e+01,3.563403734234689324e+01,5.164352332848177696e+01,4.333117893905069629e+00,1.011366810004120254e+01,1.428632174427480095e+01
4.317746938919758470e+00,1.659334911747531294e+01,2.917187004796311811e+01,1.355133863530286931e+01,2.990222176472062543e+01,1.416379668564400340e+01,1.866760995842789939e+01,8.187927158206900202e+00,1.524423554479810505e+01,6.448378245870277681e+01,4.242832482248908832e+01,4.784269295666335609e+01,4.384804121858561388e+00,9.308231771986189784e+00,1.500086722321420751e+01
4.315311097045139377e+00,1.823664957852609803e+01,2.860759170118742034e+01,1.322557455704973250e+01,2.944737890689245319e+01,1.174228947573898729e+01,1.906972414543519889e+01,8.597141102381321787e+00,1.567121683413912159e+01,5.779575654536019869e+01,3.880381891354237212e+01,4.093401387776795275e+01,4.254529845506583641e+00,1.010579637443054324e+01,1.572627249155438101e+01
4.389918850694654040e+00,1.584542705121422479e+01,2.895075453050385761e+01,1.577578578837960599e+01,1.871097199659844534e+01,1.353760757611225429e+01,1.900022469404973435e+01,7.796118847137162078e+00,1.119121157125800359e+01,6.329495328563433532e+01,4.121735191904360818e+01,3.270105128412851059e+01,4.410874169516009857e+00,1.418455823227374424e+01,1.562923260159740479e+01
4.341147738256442068e+00,1.758128055566571391e+01,2.982608402849232831e+01,1.545886545414020397e+01,2.124075730766508485e+01,1.140993796821485873e+01,1.858596963963675819e+01,7.581799245545589372e+00,1.342783686618427375e+01,5.482883916148232117e+01,3.279809699075563856e+01,4.252037187820026531e+01,4.356632376954245878e+00,1.070974171668123098e+01,1.431143413998158742e+01
4.447323492344335882e+00,1.744160799593309719e+01,2.967899990493963003e+01,1.546309432806333284e+01,2.196696161507034617e+01,1.277049299561612195e+01,1.885222821005540439e+01,7.246393029858029244e+00,1.315929104616814982e+01,5.794173140412806333e+01,3.208466979216210291e+01,4.817277956797576621e+01,4.436735643317490485e+00,1.082015396303548727e+01,1.363584430764427680e+01
4.219519990808592524e+00,1.873651391405054767e+01,2.869355156921776739e+01,1.199110473585916026e+01,2.739028550774740722e+01,1.200331322858559346e+01,1.866479524907735765e+01,8.854306945094320369e+00,1.088720338325447834e+01,5.597759147603085950e+01,3.981374528535116042e+01,2.850482223259627901e+01,4.364376999935974943e+00,1.092703080779797453e+01,1.461051417112100204e+01
4.573075180574893039e+00,1.637942046133054319e+01,2.943640741525236848e+01,1.304742283998240637e+01,2.852904426592559872e+01,1.295169506090083722e+01,1.852803006821720899e+01,8.386247293042652373e+00,1.210180526817550017e+01,5.789709013594016085e+01,3.660960422239444512e+01,4.060616183318972361e+01,4.223284856908933627e+00,1.130637653149202038e+01,1.502993202598709033e+01
4.308417764697946239e+00,1.491706397787745964e+01,3.052215576421628995e+01,1.376573630486742594e+01,2.846542496576929437e+01,1.399664270423512669e+01,1.871269706184453341e+01,7.642105028835564084e+00,1.237263732715638476e+01,6.195937242739377382e+01,3.710943302534430899e+01,4.344626985043679213e+01,4.443463071206054771e+00,1.228872788759979784e+01,1.500334996339669758e+01
4.391117166191389032e+00,1.584567884801590409e+01,2.749567160300308899e+01,1.271237480176765366e+01,3.029854976710335990e+01,1.312567250673276043e+01,1.851484526385605278e+01,7.702128196802684457e+00,1.423149792782790968e+01,6.038814819653731547e+01,3.584703027984087242e+01,4.672390529311462615e+01,4.241882847507892684e+00,1.095413199061659881e+01,1.456214039257915260e+01
4.428037195579650032e+00,1.758025624443502011e+01,2.719500638628571210e+01,1.408209304361739456e+01,2.064302566846002662e+01,1.229232192409030411e+01,1.852906417950490336e+01,7.032783242496604359e+00,1.328412734347386781e+01,5.900320052677610505e+01,3.684865118813616647e+01,3.608179644884938853e+01,4.364987829995985003e+00,1.193381076937478724e+01,1.447130056084126615e+01
4.250664334843423653e+00,1.636394655300271594e+01,2.821897903779992944e+01,1.364932039578815903e+01,2.263455015610475130e+01,1.279753172028337183e+01,1.898163549898941582e+01,8.168858260292806150e+00,1.187400276306855673e+01,5.967221293820030326e+01,3.547736472688040976e+01,4.412139970840782865e+01,4.304159179449969841e+00,1.174468245724393967e+01,1.458879008017091472e+01
4.404917855259469661e+00,1.624388526921624987e+01,3.019384232857359507e+01,1.372443977177833752e+01,2.806163973133650202e+01,1.294427589012665258e+01,1.848888537116403441e+01,8.595817950864200085e+00,1.137935763991851346e+01,5.977138257406658539e+01,4.262742249863837429e+01,3.238687373000290393e+01,4.265920902078581101e+00,1.012241796348514811e+01,1.386267809827654496e+01
4.654741935177261425e+00,1.650418759156339021e+01,2.822871213394428480e+01,1.196643791357440456e+01,2.978476147744780178e+01,1.201962756171232805e+01,1.814350381738973894e+01,8.328182435826267493e+00,1.264958785753547588e+01,5.812165788496956509e+01,4.022465888970047132e+01,3.382283635800474286e+01,4.257872851112827206e+00,1.108115358129648165e+01,1.559001051575669550e+01
4.284319851494601039e+00,1.693415141789501632e+01,2.861816931589926583e+01,1.290401991117049008e+01,2.948277967070350414e+01,1.329829945703432514e+01,1.866047683770690213e+01,8.989013299459763573e+00,1.355599191917831092e+01,6.215975858459336933e+01,4.366031722381521263e+01,4.009866704877994437e+01,4.248770240601570158e+00,9.652518071906103003e+00,1.506274732381609027e+01
4.467301559827413726e+00,1.881031056132888324e+01,2.764451688351291381e+01,1.234469636238058854e+01,2.686485704370273453e+01,1.236191713084150834e+01,1.896139380676517305e+01,8.789393018220419407e+00,1.216333569820441340e+01,5.991282493665207198e+01,4.080069159960425651e+01,3.557055359428122188e+01,4.265013545068580214e+00,1.056286362343287166e+01,1.451978968780117540e+01
4.243285034194251182e+00,1.690933635066377150e+01,2.993245280442377521e+01,1.363052115211833026e+01,2.723397259902329637e+01,1.473701513466543744e+01,1.900100929296158370e+01,8.495660840165305316e+00,1.190757685623153783e+01,6.576269299128800583e+01,4.316625348180888722e+01,4.181051050463107543e+01,4.394654198473937790e+00,1.093397406330647037e+01,1.447908800582088773e+01
4.406086469473713407e+00,1.789525162933633595e+01,2.801328615731448224e+01,1.451237991516473080e+01,2.027768024833975602e+01,1.182124003237391285e+01,1.807547048113810817e+01,7.367244307008693482e+00,1.100697064520400126e+01,5.599754256465575963e+01,3.334303943914640200e+01,3.816750881406821350e+01,4.401194503365142729e+00,1.004848429766037299e+01,1.273362896751365270e+01
4.451064040446326864e+00,1.609756261051061799e+01,2.807407989378286217e+01,1.252828754774469111e+01,2.886195126097302222e+01,1.459350731053340233e+01,1.861982156165881364e+01,8.632933633550960550e+00,1.165723890383915418e+01,6.548581104159754318e+01,4.247844694439007895e+01,4.229473258495311683e+01,4.323876489771335763e+00,1.060655591687383748e+01,1.352629093397462512e+01
4.433989002037983518e+00,1.655049923805095702e+01,2.701814042039978858e+01,1.396318081596939109e+01,1.959901606378276995e+01,1.433630889850815748e+01,1.772376500789465226e+01,7.034018885183325409e+00,1.150280797679394418e+01,6.316764996789659392e+01,3.805625507565532217e+01,4.375883965148324251e+01,4.261340690457800839e+00,1.250324556927798980e+01,1.464848294285734376e+01
4.180616080351529540e+00,1.755989135541284796e+01,2.891981488732675487e+01,1.687275992576263661e+01,2.063287640835168446e+01,1.303946483723224503e+01,1.861413230555998410e+01,6.972868252552430590e+00,1.623817538706566310e+01,6.035992110095464369e+01,3.553997304419996794e+01,4.865966152218136642e+01,4.428502793169386109e+00,9.932189853477147778e+00,1.435714663427458682e+01
4.510668584232276679e+00,1.860592201798279177e+01,2.936246074831004549e+01,1.269666918466148609e+01,2.965345685196123782e+01,1.296934448299416331e+01,1.915816399790136160e+01,9.327376986756352295e+00,1.248427068404167173e+01,6.130687612677211007e+01,4.397306516740591320e+01,3.479105340195043539e+01,4.478800174886091057e+00,1.051616859229114276e+01,1.547775564747798427e+01
4.433647245158883976e+00,1.661557556465747254e+01,2.980180548129592921e+01,1.358781766471256169e+01,3.257269354600258993e+01,1.282731469544039449e+01,1.892158920194870575e+01,7.979118369791435406e+00,1.602263050790724463e+01,6.135639467381584211e+01,3.986304015992656957e+01,4.354047052616970603e+01,4.422827721812167212e+00,1.050216678106367318e+01,1.591580082869795021e+01
4.535343031371076528e+00,1.645496598503186192e+01,2.848757013783740888e+01,1.308568443398456083e+01,2.766490980896698559e+01,1.490962781753352573e+01,1.802970492588827511e+01,7.665354837046050918e+00,1.309097908419254885e+01,6.518502555319723513e+01,4.328811435225662763e+01,4.284485121959797738e+01,4.196035211326378800e+00,1.049248873839819396e+01,1.446481410807731827e+01
4.288566392020967122e+00,1.564646598040657466e+01,2.888835034533269663e+01,1.320549606972153178e+01,2.601904183654386671e+01,1.385113035144147098e+01,1.845889979162537742e+01,7.978667599343801875e+00,1.213749388063527590e+01,6.323441055868453020e+01,4.012427043805229943e+01,4.402525853437667536e+01,4.301360358967056818e+00,9.529324639134022945e+00,1.321665198824476306e+01
4.230738931104360390e+00,1.679299081707169705e+01,2.888346503764806528e+01,1.238775900629869042e+01,2.846481121262208092e+01,1.357005993864697402e+01,1.886909297637886596e+01,9.223491537846951971e+00,1.132912942530056988e+01,6.259329082619731111e+01,4.475160080756003822e+01,3.509350031722102159e+01,4.080797809472353599e+00,1.135791278765280055e+01,1.487302779612142700e+01
4.196000843555988347e+00,1.684103843155030233e+01,2.912708284215010934e+01,1.205212213695466161e+01,3.368359623738221842e+01,1.133844506063385538e+01,1.817231843726985474e+01,8.262639750330039945e+00,1.575262272840313926e+01,5.478889868785660866e+01,3.866471681293865004e+01,3.651698915619483898e+01,4.349742923713129095e+00,9.713342811776286112e+00,1.606869452072944071e+01
4.378659997896742873e+00,1.899511978724932248e+01,2.828872999457859905e+01,1.344345185906971096e+01,2.606714286978814599e+01,1.264142121474903213e+01,1.934975425434909369e+01,8.616135264177009034e+00,1.197218786327304763e+01,6.099898938527059755e+01,4.052431448716910012e+01,3.453974921358816630e+01,4.363538193595612569e+00,1.150956612815778257e+01,1.454994397181866539e+01
4.237901258936597415e+00,1.835893241426571265e+01,2.866782330943973989e+01,1.180454981034722906e+01,3.192142744211698968e+01,1.181433658111742346e+01,1.818892865952742710e+01,8.130869263134016478e+00,1.506207935581950608e+01,5.533865381197379918e+01,3.900146979298653349e+01,3.524723296547337981e+01,4.441907179014516593e+00,1.029244555192818211e+01,1.623701260560796200e+01
4.484663175388337031e+00,1.866807495724683719e+01,2.820933387056372510e+01,1.321341049604108520e+01,2.958349812008423996e+01,1.243078893527601281e+01,1.860650286139813403e+01,8.105356580302213843e+00,1.598705018115547283e+01,5.811519165730272363e+01,4.018552382031186454e+01,3.821010840322958302e+01,4.408513495016035399e+00,1.006634509013382761e+01,1.609653044314978487e+01
4.237938927967421776e+00,1.781128485045056919e+01,2.803650178741743204e+01,1.171364024925457770e+01,3.137805530319076297e+01,1.200033557540837847e+01,1.942704048757050472e+01,8.813680893317991760e+00,1.411859584834190606e+01,5.962722943279809584e+01,4.137751870542491872e+01,3.428338251985596230e+01,4.170408148517333657e+00,1.191723346404948636e+01,1.609677087548070062e+01
4.263813739915377710e+00,1.687585702741025173e+01,2.800435248322024506e+01,1.145657149892274518e+01,2.842342767815434001e+01,1.301009179983461905e+01,1.932304476973110141e+01,9.362338052915097464e+00,1.194765165110818295e+01,6.280482949788096647e+01,4.399964790822568972e+01,3.673584213038431301e+01,4.387146146422409743e+00,1.056464968966403184e+01,1.489665249788030543e+01
4.262645806406784033e+00,1.744008228457519749e+01,2.844334105326072049e+01,1.185665817733370453e+01,2.898608391862446254e+01,1.221172072754808013e+01,1.910603105786975320e+01,8.990109961853306686e+00,1.183063727024509504e+01,5.859878204614349073e+01,3.986633514937019385e+01,3.166821035727631894e+01,4.258691650533104500e+00,1.126586589048451970e+01,1.433838689045097148e+01
4.228461573165411380e+00,1.831824222567341565e+01,2.952972960420367343e+01,1.200583943551808019e+01,2.851005050327454882e+01,1.241546888873789456e+01,1.902694516310917194e+01,8.820845297026753684e+00,1.141240130106228889e+01,5.812955924823242526e+01,4.100512791344155517e+01,3.004317868602038644e+01,4.602901035445293942e+00,1.049331509390516715e+01,1.437422974831382660e+01
4.356097545417078720e+00,1.526896930662471341e+01,2.880413174467482662e+01,1.335211186446030496e+01,2.810250698013295434e+01,1.280334083876163298e+01,1.815856321976838572e+01,7.894318750011455776e+00,1.268884121927975173e+01,5.946667854952334409e+01,3.665142100802246716e+01,4.237933367167928367e+01,4.474104259687876173e+00,1.002763573925918905e+01,1.434678683607904048e+01
4.369578461907272171e+00,1.729086613900441449e+01,2.776234427404135729e+01,1.141747241019242054e+01,2.897181260858582519e+01,1.180923787483942000e+01,1.806728369384133970e+01,7.826488335466045498e+00,1.262936710068977142e+01,5.494068701991097470e+01,3.537916927983071957e+01,3.645216908728598071e+01,4.309460850075128135e+00,1.077049796215562871e+01,1.482911993198916178e+01
4.318494093079261020e+00,1.642358070323284025e+01,2.805515142437938181e+01,1.297258574136217391e+01,2.963841910428383386e+01,1.181467324733552005e+01,1.856440885094828275e+01,8.332094963590057191e+00,1.396326293292484522e+01,5.819754765440981004e+01,3.757969029753730439e+01,4.046361208325041048e+01,4.233471510065616172e+00,9.571806598609477135e+00,1.431454774893255788e+01
4.398974851900255167e+00,1.652598700672011489e+01,2.927818093467938354e+01,1.381302121903479829e+01,2.498353696130001822e+01,1.339785811229564771e+01,1.871488113921438057e+01,7.598355426124695278e+00,1.374738812291277767e+01,6.055447452908428119e+01,3.560301313007586543e+01,4.928449126135441816e+01,4.487473892806004727e+00,1.073673091826953296e+01,1.470377512095205041e+01
4.340804505550366343e+00,1.744892048435252363e+01,2.802619898672331189e+01,1.236103432766085675e+01,2.469756527462272899e+01,1.254741494118565726e+01,1.731810625508524382e+01,7.430966533257100437e+00,1.195925149718401848e+01,5.474777297052477110e+01,3.420748469123584101e+01,4.031972302127289964e+01,4.464894655027470627e+00,1.137573771919932142e+01,1.536523175727963419e+01
4.471275726267791129e+00,1.702947662560433173e+01,2.916948074790970225e+01,1.332154190393527671e+01,2.730390454553811352e+01,1.461762331575018692e+01,1.815047204835202876e+01,8.555517848744486287e+00,1.210608488820228601e+01,6.349472828720391959e+01,4.231243764802413665e+01,4.371154594550707628e+01,4.265438206900773466e+00,1.036026413247871325e+01,1.491220122388753566e+01
4.157782162664933168e+00,1.673251958521630556e+01,2.845572562380007042e+01,1.260322563227418513e+01,2.517348981312349210e+01,1.314665070318961781e+01,1.768350768853543897e+01,7.825205997303298133e+00,1.643879805218450585e+01,5.813368999223526146e+01,3.793488315692821544e+01,5.420246011776787043e+01,4.183576386021380600e+00,1.019285983508830817e+01,1.433869504603988609e+01
4.205778764832306393e+00,1.757986814024434707e+01,3.006638059595996992e+01,1.330506954560555322e+01,1.860022684313180008e+01,1.313835561232866489e+01,1.779754769585878194e+01,8.407316741876414312e+00,1.004418170672825106e+01,5.744354509440159973e+01,4.096515438277265275e+01,3.642172603393839125e+01,4.507286232468133313e+00,1.277621970943596352e+01,1.332673608526069486e+01
4.270076321844088696e+00,1.650179466391112371e+01,2.943565737431371332e+01,1.362233088161956651e+01,2.164989788688946959e+01,1.283377596816166388e+01,1.894095021593394179e+01,8.630851631720585004e+00,1.443071346224104090e+01,6.098442672039780632e+01,3.982045235998985788e+01,4.811294159636130274e+01,4.420559560080858041e+00,1.146684131288295738e+01,1.487036321414541185e+01
4.138469037299946862e+00,1.656294285678770706e+01,2.846903542673346621e+01,1.152817437471827056e+01,2.700451608652824476e+01,1.379015171791797023e+01,1.859167493808397253e+01,8.427372477469289080e+00,1.343301468418941624e+01,6.343065047892748964e+01,4.308007562359987475e+01,4.441705431888485123e+01,4.383176604144620292e+00,9.031898538072004712e+00,1.300824582748746927e+01
4.081987026972608845e+00,1.763155048543382719e+01,2.885450800585143227e+01,1.263135359447043804e+01,2.063159965979209787e+01,1.322895799060491484e+01,1.860217936305110342e+01,8.743130974581793780e+00,1.055467621019443847e+01,6.059478565817067874e+01,4.339270018336519286e+01,3.333974323422322072e+01,4.328077325041395085e+00,1.080389858123121627e+01,1.288133436748387162e+01
4.572367467924499884e+00,1.711698293896581546e+01,2.961702887496710801e+01,1.309911008273277488e+01,2.146213630080284673e+01,1.185666455961121102e+01,1.788068926998204233e+01,8.506996502981481356e+00,1.149802200025898280e+01,5.587186348724367235e+01,3.977370252544427842e+01,3.636328395595236884e+01,4.193839885733886774e+00,1.102419000217351019e+01,1.263554526294046632e+01
4.327384456332834972e+00,1.768527516893845331e+01,2.963801693874201604e+01,1.388262026922069126e+01,2.075551377107194284e+01,1.202349730249150994e+01,1.825524308064676404e+01,8.645076188167049480e+00,1.042314784789208382e+01,5.627090540516189066e+01,3.990904469107085362e+01,3.248576023345380293e+01,4.124716464037900820e+00,1.138565219387923833e+01,1.361615249541983985e+01
4.445244912674218618e+00,1.896208597920901084e+01,2.951154512585542022e+01,1.301614142940113439e+01,2.361848440083939238e+01,1.224005918997977993e+01,1.744019860412561584e+01,7.997364342232070378e+00,1.139629903481880113e+01,5.374701723714658641e+01,3.924316056454082968e+01,3.117530508690822799e+01,4.160937585045112463e+00,1.147846725751591812e+01,1.397497552035160240e+01
4.363348164693920950e+00,1.665689973575027238e+01,2.905028584980819772e+01,1.232394263806976653e+01,2.599951823660057570e+01,1.392023568118018062e+01,1.938457104491075000e+01,8.483552931939442487e+00,1.388504628722428791e+01,6.329311697473156073e+01,3.979927513915475856e+01,5.065332925904041872e+01,4.363892580833232948e+00,1.063294096615721429e+01,1.421159916467694551e+01
4.220699783155329676e+00,1.691995553720830614e+01,2.988566705131699308e+01,1.354102216634556122e+01,2.177144488945398493e+01,1.354301209162416342e+01,1.789353372276581311e+01,6.957538013048282011e+00,1.619120669740730989e+01,5.895355054456166499e+01,3.582577944013934967e+01,5.573369609417174075e+01,4.512289686467600092e+00,1.120707627539850293e+01,1.428440323630844588e+01
4.591569425874752142e+00,1.643080549105209442e+01,2.924348502680074446e+01,1.456186777479837069e+01,2.020794959625331444e+01,1.236329406356679428e+01,1.769557732025003460e+01,7.524445936964072601e+00,1.451495508093258557e+01,5.764189602715466521e+01,3.794228592270094680e+01,4.328870008277819181e+01,4.169790107931495626e+00,1.150178820722282147e+01,1.492165103830539685e+01
4.367007280959196436e+00,1.587871755320852785e+01,2.818809377568058494e+01,1.363716248628134586e+01,2.175352954364010571e+01,1.369737217322321854e+01,1.915751241809366334e+01,8.241398307575678928e+00,1.433259476470563598e+01,6.445988480298704815e+01,4.276152597254201737e+01,4.346787096071226841e+01,4.429452262577082244e+00,1.014644834935539564e+01,1.442627375495655961e+01
4.358179111822936491e+00,1.708572400288427673e+01,2.904008134387068907e+01,1.362384154555060078e+01,2.531573362891034407e+01,1.357598164752327285e+01,1.937141598010500587e+01,8.577690316808730842e+00,1.537717709162489399e+01,6.385608145936650715e+01,4.356755980811457363e+01,4.299729053971443449e+01,4.171075466531581455e+00,1.086814450833275458e+01,1.520366266051815174e+01
4.442421752207796004e+00,1.663194063784893828e+01,2.927154817660550989e+01,1.444320487557892463e+01,1.874666832057443955e+01,1.427332664616785074e+01,1.867604040367434592e+01,8.346992502900068445e+00,1.321412214446705491e+01,6.435010781379826028e+01,4.410394108528946333e+01,4.214794313115672963e+01,4.115289835996041923e+00,1.118546445645366383e+01,1.367770922079489537e+01
4.275914501270385415e+00,1.646048577931760093e+01,3.066453245211911138e+01,1.280357902641732792e+01,2.767358921649892523e+01,1.248255417202890527e+01,2.000955335154612769e+01,9.193094018212651264e+00,1.266600018104128367e+01,6.235934134028637743e+01,4.270743150806275423e+01,3.562084928434762077e+01,4.528340745373975018e+00,1.325948909100877771e+01,1.627908700821161148e+01
4.285116199066811404e+00,1.609291500094816030e+01,2.810805321950168079e+01,1.252224064037993045e+01,1.842864613908956173e+01,1.352696619659832677e+01,1.861029252415801238e+01,7.446373393925615147e+00,1.295974634903620526e+01,6.248012340394399899e+01,4.087585454374141847e+01,3.925704153081251491e+01,4.574393737826276229e+00,1.093505878468037551e+01,1.314560873876951419e+01
4.469411779132625107e+00,1.635015288256612820e+01,2.767318181807467425e+01,1.132747061666466593e+01,2.498723018356079351e+01,1.397329485960346496e+01,1.827739378451142827e+01,8.638106410571156246e+00,1.084214626618864230e+01,6.261267077015884297e+01,4.232389385901668533e+01,4.178614911096771323e+01,4.035490444403664334e+00,1.118082172814546738e+01,1.331263131794494470e+01
4.280857069673592363e+00,1.800768846912914967e+01,2.987888185528702323e+01,1.358132379319382466e+01,2.472324895342778817e+01,1.263391110764866454e+01,1.892656932896574062e+01,9.177242447680526993e+00,1.359496274251429959e+01,5.920822771172824162e+01,4.156571633319506276e+01,4.156932689740511933e+01,4.621527110301621555e+00,1.072857909539033194e+01,1.552711952023169850e+01
4.303950691431888131e+00,1.657013424510440203e+01,2.760224661715494676e+01,1.242443465382943302e+01,2.426619191181712409e+01,1.297267146724930953e+01,1.906220306804056008e+01,9.064080116613681071e+00,1.325165765678833374e+01,6.149535173664672527e+01,4.355473482411134256e+01,3.612442188482096128e+01,4.126032946354568409e+00,1.081299788504482251e+01,1.483639666132188850e+01
4.327107115242438518e+00,1.782831556364300596e+01,2.954662507865163690e+01,1.262805905564140829e+01,2.733777741609631562e+01,1.173827844648477026e+01,1.841134736360511326e+01,8.697799191198017255e+00,1.468359931702662102e+01,5.567395251371355869e+01,3.989597457201882946e+01,3.996122117454397937e+01,4.464995664147386911e+00,1.006325328021470433e+01,1.457040829461682208e+01
4.499351326978857202e+00,1.580777769884183215e+01,2.970873019403801152e+01,1.373970876398795049e+01,2.594217159266688810e+01,1.371998088714232900e+01,1.813694145805971658e+01,8.102941825584672131e+00,1.531593224146582699e+01,6.157916307640662268e+01,4.280638041123911819e+01,4.220434025238850495e+01,4.302110970275804469e+00,1.041878648919116479e+01,1.523609265787581002e+01
4.521093387518565265e+00,1.741921786450957299e+01,2.913870100478653313e+01,1.325488379096917413e+01,2.705717895480645296e+01,1.257694289207651650e+01,1.767436618514584978e+01,8.278519285537576877e+00,1.625578367675058189e+01,5.709371301410909894e+01,3.912253978259063558e+01,4.889788236069634308e+01,4.264053568783118031e+00,1.037712140832260133e+01,1.564116247132451676e+01
4.393844140868409909e+00,1.697736878737315891e+01,2.867679740056298954e+01,1.244039098711278513e+01,2.270203111644879357e+01,1.522447291846909678e+01,1.862119177166986361e+01,8.599305726105740177e+00,1.216294215245520682e+01,6.670346058819220048e+01,4.449847344474508759e+01,4.766351597818875518e+01,4.208376468403606907e+00,1.018059062035636941e+01,1.284371732944479660e+01
4.208992305633787900e+00,1.773443601374864542e+01,2.906954271279447610e+01,1.252227983050388715e+01,2.318982930233394413e+01,1.233475337935363925e+01,1.861514108636503551e+01,8.725109316476903132e+00,1.217315608951928851e+01,5.814404608383380690e+01,4.070882601879218754e+01,3.734414991264285533e+01,4.333554223303582198e+00,1.208207043639064615e+01,1.461855092261599154e+01
4.139803667612838467e+00,1.698819113391020252e+01,2.835139063455980235e+01,1.287955694611644120e+01,1.963825490369848481e+01,1.162629988269291204e+01,1.806297168098687322e+01,8.244869913283549678e+00,1.130891960746619063e+01,5.509560169031624355e+01,3.661349118278060644e+01,3.853654938456619305e+01,4.210387344381618213e+00,1.151540237908402986e+01,1.366649971916863571e+01
4.492234939261301463e+00,1.626190783795247796e+01,2.889200504736442809e+01,1.278115960559250297e+01,2.130056146229546954e+01,1.371966546001393183e+01,1.899067778865779133e+01,8.842309858158266422e+00,1.255103191970323095e+01,6.371114190590385817e+01,4.162568863297465072e+01,4.736765412551112320e+01,4.297547012486153228e+00,1.050134726887241321e+01,1.301548662164295678e+01
4.346657406663172907e+00,1.637657977529480036e+01,2.738597254875284648e+01,1.341036220406387081e+01,2.658200416243905551e+01,1.234154462950716180e+01,1.887054670326886097e+01,8.208353461737649681e+00,1.498374078660743791e+01,6.029005982989819756e+01,4.041749027496409497e+01,3.689896969043962827e+01,4.244917132154112593e+00,1.335844787481681095e+01,1.778577290675220368e+01
4.419965261673029389e+00,1.602925981796863297e+01,2.969365579266499111e+01,1.280178452593040817e+01,2.896263190493865380e+01,1.331134256925842507e+01,1.845690222119090507e+01,8.764083429827504546e+00,1.124287626487505065e+01,6.017924461606063602e+01,4.311679400081349911e+01,3.001014030443005609e+01,4.315060138639378096e+00,1.362331538084546345e+01,1.716183074005014220e+01
4.279882639914346143e+00,1.783510551571572122e+01,2.726507308937840435e+01,1.145234911282300416e+01,3.034805747918696284e+01,1.185726288734067957e+01,1.782626622301308217e+01,8.853489168286277078e+00,1.275409788845351500e+01,5.592703055881140983e+01,4.050333035646158919e+01,3.045399807123335734e+01,4.062113968806339237e+00,1.378953950421672658e+01,1.858515426153097749e+01
4.225999113394761864e+00,1.699072517799635662e+01,2.875030316661398189e+01,1.240371104860689044e+01,3.284036086412206146e+01,1.299661570927914767e+01,1.860211878218229842e+01,8.694705389924367367e+00,1.769571747882884338e+01,6.030818946040682249e+01,4.115582801809956948e+01,4.915719380282405382e+01,4.099319937384916734e+00,1.250827499858009340e+01,1.830868036808936239e+01
4.556342633260220154e+00,1.830758219880974025e+01,2.895473119283689911e+01,1.224953795322087657e+01,3.191299607127193383e+01,1.246673432766672818e+01,1.806970851345248263e+01,7.957417776698553880e+00,1.669616027127730007e+01,5.519170852179742326e+01,3.587970070101263076e+01,4.682224538165316119e+01,4.475821975614990400e+00,1.330543263460594972e+01,1.922066451525198616e+01
4.272156667315571532e+00,1.585406223182949326e+01,2.844125648992030619e+01,1.192622232715566355e+01,2.656195551273920685e+01,9.453382179844382449e+00,1.867288211736453718e+01,8.540084152646288729e+00,1.334547629345831865e+01,5.087301335716315975e+01,3.415378675779378170e+01,3.348525729903259673e+01,4.249979944442310753e+00,1.354085348021567725e+01,1.671952119377213464e+01
4.463008123260669535e+00,1.331669036030797493e+01,2.916484702892541492e+01,1.515975614783011594e+01,2.324998004328695345e+01,1.033969979303542175e+01,1.845426188987445926e+01,7.345301204712504806e+00,2.050733264442693127e+01,5.496063551707221961e+01,3.150309802414684412e+01,5.614539483651854113e+01,4.336998924051943760e+00,1.246331776193225060e+01,1.835427870595650290e+01
4.167777116889763711e+00,1.420270790505237102e+01,2.826702405361825043e+01,1.294458353431070208e+01,2.030688568348023182e+01,9.930030691833197309e+00,1.769794652428485904e+01,7.708219340222437488e+00,1.178783209833041568e+01,4.941652803519851034e+01,2.952718673325066590e+01,3.837029862425534077e+01,4.259630637117898466e+00,1.455512182373431074e+01,1.660873500865074348e+01
4.450603941488210147e+00,1.535290522159125004e+01,2.972206563494393095e+01,1.705009176914195379e+01,1.897354509727838945e+01,9.491748530665946149e+00,1.786764425908097209e+01,7.055298038330488630e+00,1.993076985783099531e+01,4.955134667736164999e+01,2.760294807983590815e+01,5.509123110334918749e+01,4.239372561155112074e+00,1.273177613646350892e+01,1.796487784506592433e+01
4.623259898088067033e+00,1.391093959207058717e+01,2.821903871731931446e+01,1.495238415260642206e+01,2.050975745463616207e+01,1.280645759482823465e+01,1.750153757396083876e+01,6.805706132607816983e+00,1.239588434842967857e+01,5.981760859880662196e+01,3.542378141168369865e+01,4.138880741596065604e+01,4.387509239271333961e+00,1.371138199057239859e+01,1.625063846118377953e+01
4.408878347917079665e+00,1.730796994350988172e+01,2.872724240671064067e+01,1.504551872985975614e+01,2.410155833583304741e+01,1.247789656581421980e+01,1.836883483098588243e+01,6.551429730857361022e+00,1.887167754534962683e+01,5.860326475164426085e+01,3.274331072524338992e+01,5.666887730821242997e+01,4.495235028140516675e+00,1.193157335819660148e+01,1.730092618175536145e+01
4.479643867489397024e+00,1.553808361299525131e+01,2.930517984301893009e+01,1.471230859661567791e+01,2.468833252830162905e+01,1.217572775022726361e+01,1.855550989337360335e+01,7.785509429060837761e+00,1.633817169391039670e+01,5.858722582168886106e+01,3.517810131036994648e+01,5.079121328972865967e+01,4.211947995689257596e+00,1.309432587488788258e+01,1.771293561935607386e+01
4.687237749776620888e+00,1.712519454538754005e+01,2.921088698941596107e+01,1.377222574750612161e+01,2.661596903647721390e+01,1.342160440937367838e+01,1.870582188677689217e+01,8.143189739997151122e+00,1.257894998542708898e+01,6.274251695842428234e+01,4.071919242179107812e+01,3.922378945495827907e+01,4.292537642635520179e+00,1.291281521362310336e+01,1.622774125755400831e+01
4.306763432642146228e+00,1.820694562179436815e+01,2.843315190905494205e+01,1.366303309047345138e+01,2.473149045667895152e+01,1.146505531029739622e+01,1.889673249981997571e+01,8.217168874360387676e+00,1.438407887656003048e+01,5.629617793749276444e+01,3.797534333008029250e+01,3.345649010281029945e+01,4.244304504488087382e+00,1.398948549664472729e+01,1.781650148119133092e+01
4.433973371765640437e+00,1.754451549392455334e+01,2.902341939695046946e+01,1.235873629789952588e+01,3.477685971563919054e+01,1.184160456161557384e+01,1.866369739235121017e+01,8.606685702322005582e+00,1.545064406700540971e+01,5.755069307521561939e+01,4.049501712534144815e+01,3.510156456645614753e+01,4.293092653746885645e+00,1.170021608013335168e+01,1.738415568806684774e+01
4.365975467255931441e+00,1.671148853340513440e+01,2.908503519360048273e+01,1.319806886845040950e+01,2.961994626307244616e+01,1.266551705564892671e+01,1.910261935227716990e+01,8.924653509921457228e+00,1.250933243545424922e+01,6.148165321563992336e+01,4.230578083311166182e+01,3.295597381694810224e+01,4.367202987312937879e+00,1.395395403291546366e+01,1.754538177562304568e+01
4.203709461427297178e+00,1.684467234377378020e+01,2.829361497788026014e+01,1.231052303704209550e+01,2.868762085765218828e+01,1.342931579140902798e+01,1.834725063655585231e+01,8.740569480934567537e+00,1.196794967197507376e+01,6.091791224895578694e+01,4.370006824166276971e+01,3.136007311715509616e+01,4.201843476479346862e+00,1.350444165550012521e+01,1.741902116295923619e+01
4.056849759561575119e+00,1.813120540249730439e+01,2.815691720596835523e+01,1.144187308227606437e+01,2.811753947082946326e+01,1.287410948389640453e+01,1.920922979555548693e+01,8.577794211537749902e+00,1.419489078257975478e+01,6.128249515755891252e+01,4.181103260726528958e+01,3.894886676651511692e+01,4.197067601254870439e+00,1.391952014237194213e+01,1.684229244131315184e+01
4.259152640191968153e+00,1.775382203069431952e+01,2.817080163733326259e+01,1.187164730742424013e+01,3.228955837114888539e+01,1.193128112192099266e+01,1.848075308921495008e+01,8.346753973675633986e+00,1.516190352416188247e+01,5.635584338883804634e+01,3.756233061324434175e+01,3.847102252329516148e+01,4.340677958633095912e+00,1.253113030881972101e+01,1.808037149328924542e+01
4.646787646865975674e+00,1.805477773479354298e+01,2.844349421380469778e+01,1.304592535817817733e+01,3.255146691802212899e+01,1.165349107312446719e+01,1.852166301926016700e+01,8.483039890419123097e+00,1.661147018027004307e+01,5.698877641763396440e+01,3.809143744444386925e+01,4.185993234529086493e+01,4.266239497915938372e+00,1.153090532122075018e+01,1.800085231064904789e+01
4.119358439396695992e+00,1.534528823755242399e+01,2.888714294085075451e+01,1.334800606532531120e+01,2.900451352225515222e+01,1.466407052538530564e+01,1.866914867781831333e+01,8.731023337392015193e+00,1.598454251407386906e+01,6.613583877618199836e+01,4.463884549356414766e+01,4.855971190248183689e+01,4.263857216027290065e+00,1.250620348448843089e+01,1.834073594214284242e+01
4.196518436531930796e+00,1.719136298537975094e+01,2.922905280846946852e+01,1.271813823249618558e+01,2.847376535423789079e+01,1.264389996208570466e+01,1.973891317603300521e+01,9.184445142282067209e+00,1.469115997280982100e+01,6.225211366030332272e+01,4.318373499772476976e+01,3.742330512620985417e+01,4.263762117818762576e+00,1.379758099741864008e+01,1.789835705805023025e+01
4.327936748870553352e+00,1.839390550702879779e+01,2.899355150637784106e+01,1.246324169066236642e+01,2.158397999813657364e+01,1.421531115472998508e+01,1.920460509092130508e+01,9.253735760785760434e+00,1.004683170511935941e+01,6.473856967433533782e+01,4.624381454570629302e+01,3.053139917000588355e+01,4.367816632635095786e+00,1.503424379779003850e+01,1.635450243715671093e+01
4.127482352935408549e+00,1.718134466990805365e+01,2.794144148583288256e+01,1.127991863882649604e+01,3.716826110124808480e+01,1.178213543430123167e+01,1.883888423168378523e+01,8.803527460581129560e+00,1.788037010752063338e+01,5.668305005937950369e+01,4.001348391559034212e+01,4.090248090371055412e+01,4.176958718238414470e+00,1.234813476450714376e+01,1.879936308865962147e+01
4.392278378723645460e+00,1.723651232753469031e+01,2.941098471516738044e+01,1.462637824942807896e+01,3.114057302024606244e+01,1.323841359564889331e+01,1.913131348331546278e+01,8.957437668746958792e+00,1.594851230961109323e+01,6.236133782916977708e+01,4.341534647169001460e+01,4.022722263599640513e+01,4.315601568649145570e+00,1.234641190762445540e+01,1.829676307288160331e+01
4.233450740703858628e+00,1.777968333010014135e+01,2.907916847010925920e+01,1.245445777751788263e+01,3.482669454792047503e+01,1.260120332255793585e+01,1.913518034706032012e+01,9.193961224093138540e+00,1.699843967599008110e+01,6.012943382253092750e+01,4.331855424036449165e+01,3.872914111806944248e+01,4.266190515051757615e+00,1.211608568291617338e+01,1.882696919022000870e+01
4.523469112757383392e+00,1.830022847111578699e+01,2.858603100896945648e+01,1.257571616807599746e+01,3.318545241096651210e+01,1.179004652650161233e+01,1.822614650791618729e+01,8.314709906135583140e+00,1.780116904246452592e+01,5.594207581996016643e+01,3.963572143862906927e+01,3.862537407253479671e+01,4.225399845436708546e+00,1.214852671874401580e+01,1.882519837744678526e+01
4.486395859645918804e+00,1.722136654796883093e+01,2.878267887979725614e+01,1.175578848098564144e+01,2.903100145650686414e+01,1.375215946550001256e+01,1.983516733628469453e+01,9.459803728044755999e+00,1.183116938849511790e+01,6.562935359287544657e+01,4.532701990143235093e+01,3.513399917555666718e+01,4.256718242958505094e+00,1.408324423738364395e+01,1.713596349121785067e+01
4.368182596969286458e+00,1.637694153903483851e+01,2.903987626887424156e+01,1.477442752754336475e+01,2.168951476390858701e+01,1.377436556762680553e+01,1.743123311977135614e+01,7.233507889172918759e+00,1.368768346689776649e+01,6.054577872084082912e+01,3.817434621087713253e+01,4.504565025948960511e+01,4.132067928199454343e+00,1.292162309001636977e+01,1.646568839148274677e+01
4.135858279107541335e+00,1.709328304828963496e+01,2.902126842067298185e+01,1.200624347565245387e+01,3.097985318099875229e+01,1.441934408490708464e+01,1.926279905111517721e+01,9.100688295735906763e+00,1.308165901900384753e+01,6.589746233941011155e+01,4.564152237924135846e+01,3.931307061291916227e+01,4.219414058539092238e+00,1.307751276135425655e+01,1.722127810003435400e+01
4.472148102634163180e+00,1.500188843298608710e+01,2.987688510069106229e+01,1.652723953957173819e+01,1.817199355114784964e+01,1.052200569421029996e+01,1.766205165694762513e+01,7.459502473655647670e+00,1.643127557985878795e+01,5.131732904857360467e+01,3.412945420742785529e+01,3.932983738576212573e+01,4.097213458164177702e+00,1.398348099335676764e+01,1.779097522480529392e+01
4.175866556459860490e+00,1.300581374004897128e+01,2.855451652897302139e+01,1.588174451540207954e+01,1.628464280898131733e+01,8.907481991679610189e+00,1.908727329532356265e+01,6.710573177772134024e+00,1.992840314502081611e+01,5.205607307185997001e+01,2.929744536083718742e+01,4.703006007130812804e+01,4.278974051405763035e+00,1.352555764507602731e+01,1.738935869623217911e+01
4.276871989878523905e+00,1.733457050570307700e+01,2.964390237645579518e+01,1.287306354668271702e+01,2.998201552600161790e+01,1.151106302371380607e+01,1.812825059731242305e+01,8.162777819791777745e+00,1.416960654492098115e+01,5.190983389105718970e+01,3.449211742413400117e+01,3.777903690978671847e+01,4.379883164106748161e+00,1.255923387853068007e+01,1.753301907865358800e+01
4.401356819542088239e+00,1.533381989580415805e+01,2.765551497727599894e+01,1.252077262609086716e+01,2.722949026643529535e+01,1.127403860806952807e+01,1.855901250720643603e+01,9.411590023600339805e+00,1.174316319496208472e+01,5.790070067709297064e+01,3.994122318503321623e+01,3.278812247106638011e+01,4.296338404847037218e+00,1.360973329323501702e+01,1.822108693489327180e+01
4.312883136345567081e+00,1.517986563586395654e+01,2.726869680504524851e+01,1.214618103847549335e+01,2.691885432284227164e+01,9.195255550567621228e+00,1.837448397120373755e+01,8.344743894177730326e+00,1.406792883593177024e+01,5.011520752724375427e+01,3.136310946907367736e+01,3.689019354002957130e+01,4.245864559960829787e+00,1.323432253148655668e+01,1.780124155034710753e+01
4.273921097617158438e+00,1.359362665039974338e+01,2.891250253694950345e+01,1.293452295477554159e+01,2.723505054781362844e+01,1.023269882249342011e+01,1.833834479133468420e+01,8.223393013712815502e+00,1.638007799374555518e+01,5.315978002285162063e+01,3.676547988659238086e+01,3.396272812318055401e+01,4.354060198317327490e+00,1.202034471858588560e+01,1.718469420751230459e+01
4.343416973474265141e+00,1.475720499853846590e+01,2.950134132541886345e+01,1.335390527430436336e+01,2.307152871281705586e+01,1.261683841326778577e+01,1.841146137575056585e+01,8.474442981027058508e+00,1.135781832170148320e+01,6.001824491185229249e+01,4.159625665191038024e+01,2.989205711619177208e+01,4.330978789172753807e+00,1.482411649238727058e+01,1.730072209692329466e+01
4.315713634478790084e+00,1.426126113355532787e+01,2.935360109025782549e+01,1.224343275766941197e+01,3.078901167777854653e+01,1.044474141567745740e+01,1.928509432382192657e+01,8.597848957240081802e+00,1.636742975175631898e+01,5.573503351899317693e+01,3.782144253791825150e+01,3.396911994903131671e+01,4.442732989738008342e+00,1.313668160381479844e+01,1.803719819857282758e+01
4.364671277553023643e+00,1.224119630554119809e+01,3.002938972481848623e+01,1.378767808115595095e+01,2.360681204181996407e+01,1.143334014678110755e+01,1.792021382217484060e+01,8.569941291414561846e+00,1.193677950433763257e+01,5.689071931925334979e+01,3.944466858877356685e+01,3.056585687049182098e+01,4.200825782287043175e+00,1.404014783225512808e+01,1.679293792850842593e+01
4.249950058201909187e+00,1.291910697781637118e+01,2.951498821054524768e+01,1.216433604956915637e+01,3.197082133362039258e+01,1.147785622069425671e+01,1.943953711515479554e+01,8.840904551230668318e+00,1.582884399801972286e+01,6.034149482784476959e+01,3.969015517712844598e+01,4.085147446727640386e+01,4.388148102274159967e+00,1.265978451380068037e+01,1.754436481165143036e+01
4.330878339514303121e+00,1.672189188934877890e+01,2.878049062692820215e+01,1.421256603031235421e+01,2.454827670380272764e+01,1.437730181313415478e+01,1.824172848633204680e+01,8.002082066192452103e+00,1.660876504682451937e+01,6.407133192283849610e+01,4.270672449377023838e+01,4.805471923461518458e+01,4.307457924237871438e+00,1.307809518444831909e+01,1.840929887865364378e+01
4.316344843928447084e+00,1.846097368371131253e+01,3.022972200109438390e+01,1.289849685588489692e+01,3.300727916927647954e+01,1.260048098339292011e+01,1.874756465735632460e+01,8.548647259916748453e+00,1.656611761257003224e+01,5.809855078273809426e+01,4.158148564844198347e+01,3.802656030451093017e+01,4.363500103610611802e+00,1.237483915277290336e+01,1.797079904302972864e+01
4.343906269015381127e+00,1.670367059938984866e+01,2.978415813341327123e+01,1.315366319638180315e+01,3.086571610091123929e+01,1.149566523144965835e+01,1.889357100144072277e+01,8.016432451019481320e+00,1.732359388348175600e+01,5.689096106006783771e+01,3.826251729691241366e+01,3.907323564653676584e+01,4.557681094805938748e+00,1.244583311181978225e+01,1.838102355720386427e+01
4.235990670506452282e+00,1.673811780810867589e+01,2.772035697456698955e+01,1.179653214897274793e+01,3.117348515251407548e+01,1.500988062159632364e+01,1.879158633239539000e+01,8.932962121942139788e+00,1.564468092786670894e+01,6.713941243567745687e+01,4.551367779957266890e+01,4.930877755036724608e+01,4.131858549567021477e+00,1.246507964039333061e+01,1.798508464919716587e+01
4.508505622416463687e+00,1.515702225947067738e+01,2.966398057353118745e+01,1.256893918051904535e+01,2.712795548680127666e+01,1.321581016753087390e+01,1.843057747179287986e+01,8.207292075419767130e+00,1.178490860000508356e+01,6.209818107088248951e+01,4.166952309799224707e+01,3.490183998626947215e+01,4.471283385691165790e+00,1.338684446362897873e+01,1.664988710328551136e+01
4.434581025523820941e+00,1.681866706978991743e+01,3.111379246443981117e+01,1.446913672072482449e+01,2.996859594258874537e+01,1.196113822760423417e+01,1.835132016908357144e+01,8.448425352496572671e+00,1.322580099634782336e+01,5.601851487555880738e+01,3.993729871727031622e+01,3.047727149635820609e+01,4.350516202190175541e+00,1.187523319136109379e+01,1.671282360697194491e+01
4.454835088682188804e+00,1.685969550531987338e+01,2.871091979062071431e+01,1.219093204531925068e+01,3.180778364454038609e+01,1.139516666082974083e+01,1.869791257005510232e+01,8.572123674476955557e+00,1.426562198773471657e+01,5.717622185498191811e+01,3.945531096404441485e+01,3.325915028274578589e+01,4.259183787307336821e+00,1.312014454777395400e+01,1.794864285164198847e+01
4.556518891096251522e+00,1.610272841222773721e+01,2.926014502435738152e+01,1.200075090658127408e+01,3.186763631157551302e+01,1.288242100761669917e+01,1.859343153294422279e+01,8.573490797313789713e+00,1.379507109265339793e+01,6.125057604050241622e+01,4.212423261368451222e+01,3.688540256409400797e+01,4.514904066393912174e+00,1.251339227172536894e+01,1.773223005397049690e+01
4.404042372062695776e+00,1.819462960284373310e+01,2.873958608388585034e+01,1.181548739944681259e+01,3.569176833288172190e+01,1.204647845814262830e+01,1.959919564134716552e+01,8.835457994226020517e+00,1.732708564349129432e+01,5.974351245112602271e+01,3.985947009002089914e+01,4.224165355659822296e+01,4.572166028708699592e+00,1.190959844461878880e+01,1.858018817815928259e+01
4.538679632628601190e+00,1.739007289620387198e+01,2.738811207624707578e+01,1.162802052739496261e+01,2.968519465279751657e+01,1.382340091582259411e+01,1.895708154905609888e+01,8.315548861613287102e+00,1.563803477316306534e+01,6.457957983379380096e+01,4.158180488023947419e+01,4.849694345297709930e+01,4.379056556336918149e+00,1.214535110465969936e+01,1.736727672864601857e+01
4.346543258858186931e+00,1.572914718347917251e+01,2.916290936416773150e+01,1.398771911284265101e+01,2.168042425724761912e+01,1.247843651545566956e+01,1.878693541784280185e+01,8.585439858707797356e+00,1.210347136527460066e+01,6.051348590981557152e+01,3.911968012369423775e+01,3.967433874482801315e+01,4.383188705886581715e+00,1.365642549735175670e+01,1.683723322427342239e+01
4.427676563515797525e+00,1.707832618586101603e+01,2.875751579429768157e+01,1.372038052245291162e+01,1.877194085052543926e+01,1.236938045493401539e+01,1.875651669792424769e+01,8.654530770607719248e+00,1.116674230751514685e+01,5.895380164842283222e+01,3.822902995483649136e+01,3.916678544850298493e+01,4.029327217180108889e+00,1.517131985179294595e+01,1.630864790928632146e+01
4.314376725012309954e+00,1.809586848368315870e+01,2.957656475678143693e+01,1.346457072196389149e+01,2.403338632932903707e+01,1.203461198956783740e+01,1.934608425501545170e+01,8.636565799304525726e+00,1.282087577782723642e+01,5.689314830446309657e+01,4.072765725740883624e+01,2.753780027143590914e+01,4.235327948431987899e+00,1.343898115256541104e+01,1.615623267942222085e+01
4.354153276347881629e+00,1.673246375671618225e+01,2.880167273105314507e+01,1.199631245528239631e+01,2.507897799810964301e+01,1.381052355492905548e+01,1.940150217935701349e+01,9.067470975236444630e+00,1.147972858437263532e+01,6.468250106161737278e+01,4.478164040107615307e+01,3.291949570197803610e+01,4.431278062941927942e+00,1.435227693769807722e+01,1.686633585368594979e+01
4.234131938324749100e+00,1.740281479829911149e+01,2.788324949265235375e+01,1.228317507150121912e+01,2.423392540036914866e+01,1.415006894853325647e+01,1.842361769619714806e+01,8.477109037376665768e+00,1.443019209510724465e+01,6.396349307168697607e+01,4.350604984411614140e+01,4.776699667361925350e+01,4.265422743442881526e+00,9.295393982265800048e+00,1.367765904493354157e+01
4.375136891718423904e+00,1.962054719897923150e+01,2.775929860112116643e+01,1.156809904273312384e+01,2.776549728421880303e+01,1.298982562726723877e+01,1.866035129714824592e+01,8.357025354084813173e+00,1.608148481660190043e+01,6.014925405227593558e+01,4.157932798988640855e+01,4.399619650128386894e+01,4.354535396055920771e+00,1.100679607371326085e+01,1.591845688491551947e+01
4.302135679847673977e+00,1.708075335768321423e+01,2.843222674456726651e+01,1.271842124199846147e+01,2.079938913816464208e+01,1.281388756359921111e+01,1.850415189776626690e+01,8.437325574265900130e+00,1.250653507086443028e+01,6.046506147738536185e+01,4.032153163273872565e+01,4.299423139008888484e+01,4.493234291854996343e+00,9.933755191127328743e+00,1.324639931831826445e+01
4.315681202480645240e+00,1.769178839363156897e+01,2.919467117987520766e+01,1.196196704194960603e+01,2.923985809737742514e+01,1.232757761155519738e+01,1.867552724598226632e+01,8.588992418455941191e+00,1.340567493349308315e+01,5.735771241091221384e+01,4.033962264506253348e+01,3.879319243837267095e+01,4.257240603195248774e+00,1.074670024183128447e+01,1.420871916181516426e+01
4.183381588025397058e+00,1.624609310813466934e+01,2.967457716285152358e+01,1.245327045779559327e+01,2.838962741085069297e+01,1.344053580294242245e+01,1.941577778377920893e+01,9.019868508518319672e+00,1.236461775107960825e+01,6.379821449135709344e+01,4.327131100211560977e+01,3.951083496465481915e+01,4.367280527036338178e+00,1.145571647706116281e+01,1.527745509614414487e+01
4.316283291566366032e+00,1.837732538335185950e+01,2.830517577886497804e+01,1.174217307565186630e+01,2.448983432134956217e+01,1.205112256725936781e+01,1.851662207525338744e+01,8.954924345118902451e+00,1.196983862789949349e+01,5.687870362031624438e+01,4.095403767054182964e+01,3.639343673083844521e+01,4.190853932225413914e+00,1.182177515555340896e+01,1.377877316041125333e+01
4.408929068989850819e+00,1.735297128614002915e+01,2.812535141018896923e+01,1.275000121336351810e+01,2.102682315673353841e+01,1.450156419116229856e+01,1.917776884347452793e+01,8.342793929141151921e+00,1.126399469061169967e+01,6.560463294745844109e+01,4.467964757422525679e+01,3.566740137079356998e+01,4.316947285845501803e+00,1.182486117469471587e+01,1.401026261620719460e+01
4.420457467434132148e+00,1.585585840415891035e+01,2.891352318679640376e+01,1.619309123910730364e+01,1.580784138152059448e+01,1.277501548922276164e+01,1.855826377522991777e+01,7.473718831459522427e+00,1.629745515490716201e+01,6.037094635134388199e+01,3.521919634712126168e+01,5.347086836137893329e+01,4.244010359539682753e+00,1.329699585966815611e+01,1.680283389531555116e+01
4.306784637564568641e+00,1.795953480060555663e+01,2.747882175324323129e+01,1.211035288109619401e+01,3.015331693617672926e+01,1.274055104068241562e+01,1.874582429637568026e+01,8.696872659270862727e+00,1.565853753618004163e+01,6.089001143175469366e+01,4.198487649075608630e+01,4.036722846039356938e+01,4.061265443763377725e+00,1.292253069154392264e+01,1.811254147348583388e+01
4.300384096114516552e+00,1.607263729578957623e+01,2.847205651714197927e+01,1.136544440017852153e+01,2.954070008844381690e+01,1.406088166338722800e+01,1.876404550044092190e+01,8.842020258849141001e+00,1.160709212047645522e+01,6.322511871955602203e+01,4.307631185274972552e+01,3.581235289428875745e+01,4.413013792898222043e+00,1.447063912939374752e+01,1.804366791557369964e+01
4.206145386738726621e+00,1.817255233669958159e+01,2.872292062080684261e+01,1.435357738501601332e+01,2.463409916472532046e+01,1.249391608903950868e+01,1.763051772525659899e+01,7.251462506672043062e+00,1.485582085747284253e+01,5.533799205796929499e+01,3.719085770109818156e+01,3.461266185167145437e+01,4.147619979425436476e+00,1.341387324142838544e+01,1.752929320298619942e+01
4.442897617116865483e+00,1.640922912044447912e+01,2.894388085659345577e+01,1.232151898236099186e+01,3.080903270619718981e+01,1.254277621536806464e+01,1.782740171591927236e+01,8.401653182488075799e+00,1.311659534152526341e+01,5.494362496367844528e+01,3.671023161761719678e+01,3.780752669939478494e+01,4.308707949385364167e+00,1.331496836633376546e+01,1.825275363024380226e+01
4.461895455384325082e+00,1.203492500762251538e+01,2.856605349768008395e+01,1.190453236530584924e+01,3.345988016048852387e+01,1.075833270210030612e+01,1.833902021518028747e+01,8.784759211106075938e+00,1.583351737971228523e+01,5.359248911339190613e+01,3.449250846545585603e+01,4.629394288815996816e+01,4.154328548487073114e+00,1.229870612456063483e+01,1.785439290548717040e+01
4.501288735963832721e+00,1.394150882836603955e+01,2.902780964518196782e+01,1.241396895429298297e+01,2.997922859846298138e+01,1.238308605847587884e+01,1.903376001944165807e+01,8.396285443667711235e+00,1.333680990342372574e+01,6.095512765825250767e+01,3.776322640750055371e+01,4.188024086587250849e+01,4.500479564739512384e+00,1.386318133034038524e+01,1.784096373089843723e+01
4.417454046065694584e+00,1.582186511483170221e+01,2.914347498804395542e+01,1.348542654267057372e+01,2.940853085643163922e+01,9.097626027287379458e+00,1.926788786971043876e+01,8.624644041287018226e+00,1.428166077167347048e+01,5.174270122042673847e+01,3.341574005813617276e+01,3.077461905136427589e+01,4.557951736989103608e+00,1.394919505200502385e+01,1.861748283516797997e+01
4.450793869410918369e+00,1.397427052964571104e+01,2.959979022486560396e+01,1.289997562031914491e+01,3.060196521348854048e+01,1.053957560680010808e+01,1.736168890468421466e+01,8.080902611122986912e+00,1.498785444765519692e+01,5.099911999247351702e+01,3.360134136467433308e+01,4.095839211370526556e+01,4.384112667482202852e+00,1.288797052943455235e+01,1.845925366775627907e+01
4.559953263267027879e+00,1.361098735391593095e+01,2.974838715813186951e+01,1.299086293341883014e+01,3.135281167457997498e+01,1.107330810369528962e+01,1.831064364398192978e+01,8.215577541909325987e+00,1.461232966304005743e+01,5.499176900139802626e+01,3.403074374353612086e+01,4.241444494718997760e+01,4.535281368684614733e+00,1.244429107687042269e+01,1.805768340648064196e+01
4.273082276675904012e+00,1.452984945399106209e+01,2.967961483669438039e+01,1.373783309403741271e+01,2.788728097779779702e+01,1.134546600926931781e+01,1.798909228853024089e+01,7.681137402689573790e+00,1.396017834072568498e+01,5.433370172865171810e+01,3.313852978891560497e+01,4.067844739521675024e+01,4.310722192718984935e+00,1.411018327222841329e+01,1.816275664291379144e+01
4.280309382194831258e+00,1.546393934567350925e+01,2.776688237228576384e+01,1.383643512761831040e+01,2.747590884454794491e+01,1.189787366017904624e+01,1.824636320591229577e+01,8.379885257327005732e+00,1.555194832229583568e+01,5.851379359143940206e+01,3.785399417216614637e+01,4.354642091314261876e+01,4.094900737795717838e+00,1.335519245484486994e+01,1.877726481353715826e+01
4.013231628667348616e+00,1.481809191981185592e+01,2.694690914705886797e+01,1.098073197897706343e+01,3.029492846939164252e+01,1.032421296231493812e+01,1.854765536440958229e+01,8.048926459466564154e+00,1.504634982544576971e+01,5.370141795008085239e+01,3.321445381916784356e+01,4.122491313246658962e+01,4.480406724128492613e+00,9.500686211743325060e+00,1.521462008215613437e+01
4.554501804318389802e+00,1.430984508168785041e+01,3.028091720415412880e+01,1.293870187443822850e+01,3.292478819888366104e+01,1.152963850209558849e+01,1.959229302403596762e+01,9.331349936294200731e+00,1.454055551379954991e+01,5.906472246465163778e+01,3.910507991162861430e+01,4.195745639996887633e+01,4.276154978637147330e+00,1.050574962456019179e+01,1.583814002598921533e+01
4.338738810585907935e+00,1.451691688006666325e+01,2.801234368882882819e+01,1.208706458150230567e+01,3.216489429694864555e+01,1.010805792402429049e+01,1.858838997099833534e+01,9.259730953631143180e+00,1.471772712977230135e+01,5.435802209397232332e+01,3.702474583609635772e+01,3.750816212381090509e+01,4.218148721202691576e+00,1.089537894091895609e+01,1.719806265700323422e+01
4.320773376489761120e+00,1.655315294902136714e+01,2.893839593677191502e+01,1.284351544758676056e+01,3.010229560984485531e+01,1.348096663892671643e+01,1.846254398723179690e+01,7.402405892291069378e+00,1.524406695723618554e+01,5.997786253749997343e+01,3.580241295605121365e+01,4.999155174367940901e+01,4.380604886181206581e+00,1.012621092770650399e+01,1.488724511108577531e+01
4.261090572781264463e+00,1.567576871671885996e+01,2.902494242930136892e+01,1.214688400589535533e+01,3.339881363211947729e+01,1.483437191418243195e+01,1.855056079964558791e+01,8.670040584168276609e+00,1.546137672764418269e+01,6.621611718895454146e+01,4.506058746033002649e+01,4.889156832365962657e+01,4.470771945485576104e+00,9.628015036414753425e+00,1.628594581212052006e+01
4.540454834333658596e+00,1.587525165275151195e+01,2.837200017424329701e+01,1.259788799360022438e+01,2.509801533326531953e+01,1.227471683118256962e+01,1.940716996985062792e+01,9.218913934598557347e+00,1.281654134961165781e+01,5.822714581800073574e+01,4.201777962580433723e+01,3.135578940586045604e+01,4.412327189740320676e+00,1.008403669775981015e+01,1.449962643529525685e+01
4.240301128642473216e+00,1.594798964137200059e+01,2.730425026371046826e+01,1.099827674399026556e+01,2.894641434356383058e+01,1.405374123810849163e+01,1.939890994756668263e+01,8.991038920439960336e+00,1.351919439011916069e+01,6.639129862934592552e+01,4.382134206560233025e+01,4.620127182185952108e+01,4.216478397168836878e+00,1.060358832334382129e+01,1.494408685799282210e+01
4.301961725129170411e+00,1.856035666943743934e+01,2.995002566419342926e+01,1.455841869254684973e+01,2.326684328825501069e+01,1.241106392453341556e+01,1.827366435325736660e+01,8.017624698532236138e+00,1.689473787465426113e+01,5.580895878215585526e+01,3.658430410214563722e+01,5.279879892963707988e+01,4.127471235352722090e+00,1.039297826459572605e+01,1.443565415595400303e+01
4.331254682133587330e+00,1.833128456154273067e+01,2.986406750939312360e+01,1.261868911486645572e+01,2.589133938900029719e+01,1.191222103441554125e+01,1.823064964855472425e+01,8.409908193833013357e+00,1.325835267880455248e+01,5.409508752172949642e+01,3.874216869336652280e+01,3.863913229085599710e+01,4.338648691038386573e+00,1.146646182737004516e+01,1.397094339066021362e+01
4.551283807309888019e+00,1.719975397877755086e+01,2.822853709561426783e+01,1.263378298233171471e+01,2.556758920692426429e+01,1.404979331913114748e+01,1.841855546349177075e+01,8.883438564494330336e+00,1.216876407003908689e+01,6.388927526143451985e+01,4.385265200099281913e+01,4.231534024056855259e+01,4.070934494846459195e+00,1.054008661373646127e+01,1.451146062320000141e+01
4.110623867662599018e+00,1.589159121273946518e+01,2.849067344903506083e+01,1.239081371118344599e+01,2.996928841960841083e+01,1.386914715077760363e+01,1.792446419634406141e+01,8.184030862907830439e+00,1.835194344952108736e+01,6.024142221168770561e+01,3.960155799104282437e+01,6.004483926836695673e+01,4.057169107421952248e+00,9.592859173748855994e+00,1.487661121265982267e+01
4.331144924644339866e+00,1.625030448713948772e+01,2.867583896898613460e+01,1.202585932959970094e+01,2.237146854370047322e+01,1.266053437769087608e+01,1.817369452525553086e+01,8.336475493747155241e+00,1.095662772435235865e+01,5.775087031312990860e+01,3.823871394638753429e+01,4.078178088000702672e+01,4.319795455593260947e+00,1.158707411549767308e+01,1.349561530625098982e+01
4.462600340997342485e+00,1.928334225902820265e+01,2.865650384077607526e+01,1.262932296916228125e+01,2.384623061041884284e+01,1.218853086084727977e+01,1.926364658719049316e+01,9.103446989633013686e+00,1.232287903607497448e+01,5.889367349316102462e+01,4.094858467305864025e+01,3.755466449254026884e+01,4.189858061896469366e+00,1.116399150452037148e+01,1.427966399144481358e+01
4.232537906160229291e+00,1.612273361634959912e+01,2.962785247785422627e+01,1.278145277741229968e+01,2.785065594800213162e+01,1.491087392786768007e+01,1.852489681455934090e+01,8.594808425381033956e+00,1.575154358155041834e+01,6.384004936349521131e+01,4.176946328125028174e+01,5.674305134310321819e+01,4.494187025604290397e+00,1.004918969748377222e+01,1.504283161476362984e+01
4.385502527644749904e+00,1.625056658505150864e+01,2.886750573052831825e+01,1.227578850238263719e+01,2.282531945311377441e+01,1.358102088041615829e+01,1.941252109701122919e+01,9.416971066011932123e+00,1.077105155968067862e+01,6.415598448522561625e+01,4.312157017816005578e+01,4.178089988759290208e+01,4.308333692452939623e+00,1.108652915823254936e+01,1.342822407970374243e+01
4.610233083183223890e+00,1.814117813063474571e+01,3.163530682201153965e+01,1.512961312447888140e+01,1.866660553911307474e+01,1.274151269074791593e+01,1.764918892094748060e+01,7.696489867498831572e+00,1.128912838252555240e+01,5.510796874739358486e+01,3.863847362527913987e+01,3.601645210310659451e+01,4.357030188620367284e+00,1.236378999155749092e+01,1.353491330731776188e+01
4.412375832660391239e+00,1.753817802439725426e+01,2.929122987559069102e+01,1.243830863162179590e+01,2.931677199373421772e+01,1.373913815062455157e+01,1.895956048696139362e+01,9.080826980803765380e+00,1.341800665588734454e+01,6.361008184864557080e+01,4.481693564601576441e+01,3.956757363897516200e+01,4.321474414818814225e+00,1.122204428218038252e+01,1.593111925231186277e+01
4.219892412433691398e+00,1.737195952974352053e+01,2.897024419632587922e+01,1.285907854614038470e+01,1.999026321184913968e+01,1.255746928567533516e+01,1.885478951261779912e+01,9.044667709123274335e+00,1.070064401552701483e+01,5.897770751687359336e+01,4.291604247586000298e+01,3.028101756384005228e+01,4.436950105313558268e+00,1.159077503872508963e+01,1.374480721019968499e+01
4.414507348704994172e+00,1.617766294477462097e+01,3.035322379425759465e+01,1.401911832671271085e+01,2.569059567252695331e+01,1.425709028206693318e+01,1.895495867373218957e+01,8.790486895652632526e+00,1.482323432219118153e+01,6.475463709744015262e+01,4.519449919662920934e+01,4.394648649543254493e+01,4.266446408446354255e+00,1.059016747318184848e+01,1.483302828172057453e+01
4.156508049731394649e+00,1.712657367822056287e+01,2.769781775708489135e+01,1.205132966911633474e+01,3.203437388043327161e+01,1.392548519639645654e+01,1.924760726370818276e+01,8.969153528869576064e+00,1.552631024380249691e+01,6.538798511341082076e+01,4.425176646039063399e+01,4.647531923306145529e+01,4.283544800385978846e+00,1.041491059928869056e+01,1.614864361971388007e+01
4.493520262227334250e+00,1.680607756254151752e+01,2.909911219361127621e+01,1.238101628819608813e+01,2.848451852183050548e+01,1.527965092498747879e+01,1.896700938907077827e+01,8.774871749793501152e+00,1.440810093856734397e+01,6.799377011011084448e+01,4.580955402605167137e+01,4.872924081555381548e+01,4.370881068978166084e+00,1.075148997027684672e+01,1.551274593246071021e+01
4.336682046947500702e+00,1.732419943526342365e+01,2.913688613718789000e+01,1.271482283989425000e+01,2.118577980960867535e+01,1.237912805404384642e+01,1.885839714437825165e+01,8.930297152589899312e+00,1.046564047874781878e+01,5.784998671253870839e+01,3.879605226056024492e+01,3.894662369112768374e+01,4.341201743284435643e+00,1.144045970734582340e+01,1.344599156599872813e+01
4.321600090139861905e+00,1.695106047772107516e+01,3.007234782488598057e+01,1.431545393376070763e+01,2.071906933008215645e+01,1.182676709678033333e+01,1.886175354188658559e+01,8.075002078646676296e+00,1.488999803539636524e+01,5.727896599028616720e+01,3.855898861828127622e+01,4.094089608873542119e+01,4.385080089147221472e+00,1.192213110207897131e+01,1.490781959727796746e+01
4.253640223072959969e+00,1.600920032352269118e+01,2.702093864625976494e+01,1.121323673142664212e+01,2.457019270380888898e+01,1.343500571290285173e+01,1.936779114441619498e+01,9.053546155869749867e+00,1.250999885040047843e+01,6.310225231201553697e+01,4.357043522333111696e+01,3.663211803425493684e+01,4.377340908665198427e+00,1.059652930790396042e+01,1.444444412117720411e+01
4.426299899445239383e+00,1.717808953594756716e+01,2.963300245565517699e+01,1.249799844298110507e+01,2.154028094034641327e+01,1.241692509737041661e+01,1.934154940169173287e+01,8.945119102641864828e+00,1.084982301440058272e+01,6.079505585985563698e+01,4.232182661720312922e+01,3.390458501574515537e+01,4.420140511840065400e+00,1.125901946957084832e+01,1.266199471345744598e+01
4.379896860538954328e+00,1.731583467184402281e+01,2.912404876147095578e+01,1.385024512202642377e+01,1.816386714701316052e+01,1.257881904388145244e+01,1.769350484054673700e+01,8.305060085852851159e+00,1.249979871019943012e+01,5.613661749548290203e+01,4.114141145145273981e+01,3.502873493791252457e+01,4.319928901872648552e+00,1.152316448482226363e+01,1.364755222311736560e+01
4.388527649288763044e+00,1.745854979516043315e+01,2.997590519040640089e+01,1.379607373597477959e+01,2.263200992612681262e+01,1.158418094328859738e+01,1.841414801623776043e+01,8.259586129136996746e+00,1.495007086188139311e+01,5.518824792119902867e+01,3.877844832996164826e+01,4.073876075273621211e+01,4.162777663190055932e+00,1.043770506635240380e+01,1.323093771344493241e+01
4.159472582474112556e+00,1.589873955572030795e+01,2.827108142042011707e+01,1.329752389680656322e+01,2.468577565719080269e+01,1.391992072499804500e+01,1.860454025287442192e+01,8.047486740720019682e+00,1.460496310448904822e+01,6.341955056542025915e+01,3.958436367919057375e+01,5.114971108690141932e+01,4.268858538215564380e+00,1.043826400299903234e+01,1.504039503809006639e+01
4.158925401055462601e+00,1.522223125067051619e+01,2.845400192477548984e+01,1.194042578156171075e+01,2.401623880030050628e+01,1.328195401622357430e+01,1.863936999707851783e+01,9.058911851480914379e+00,1.232525667373214162e+01,6.288460744494755517e+01,4.346393218598399955e+01,3.867048581084954151e+01,4.297774083267869472e+00,1.269130571860856271e+01,1.495788048181922392e+01
4.331857013331902984e+00,1.806353727712770407e+01,2.951418499627012437e+01,1.405183234386687552e+01,2.211049923050943633e+01,1.195726611824264296e+01,1.810214625286123891e+01,7.587726776005615292e+00,1.583107142463654071e+01,5.537456413721704962e+01,3.631417822491825831e+01,4.697859427710992719e+01,4.373351477727586811e+00,1.013248648930610152e+01,1.420149977708352651e+01
4.256101602762145220e+00,1.686684433016699458e+01,2.908990311823281161e+01,1.361259563102311709e+01,2.398057112130530655e+01,1.467816293805269723e+01,1.791524808590582296e+01,7.923545929421453415e+00,1.503975367131363328e+01,6.374200845375283109e+01,4.312573771706937009e+01,4.835325655075949669e+01,4.478152476434323681e+00,9.902778505905947881e+00,1.496983771510617522e+01
4.301378008172690670e+00,1.820397313683373142e+01,2.707326663240641196e+01,1.234466298069238732e+01,2.539475328498721751e+01,1.181293583860556140e+01,1.778061885607374037e+01,7.823377314724081266e+00,1.491834071287463992e+01,5.582475081134743533e+01,3.700871621238327691e+01,4.227500503333190807e+01,4.322940042020896101e+00,9.941593059491127704e+00,1.540927295620215531e+01
4.143289803831701867e+00,1.737761415349244487e+01,2.918907248056959247e+01,1.321124760962657518e+01,2.872845634353201660e+01,1.259848340109585685e+01,1.882169160694098053e+01,8.501298622453578702e+00,1.245464826746385079e+01,5.903845152302044141e+01,4.167800405966699628e+01,3.305791442105454792e+01,4.150286856504358468e+00,9.675944365096558641e+00,1.326212200216260584e+01
4.007795995111175458e+00,1.761888444499333772e+01,2.835006370890449290e+01,1.153675300136179516e+01,3.036286520965466806e+01,1.269324741456762062e+01,1.913768795124911293e+01,8.957786073957391793e+00,1.348216974400895118e+01,6.067146292026360044e+01,4.245043350977591956e+01,3.566803869561143614e+01,4.283260825139539207e+00,1.051604547870371675e+01,1.466380902071477799e+01
4.351746028793972876e+00,1.673381456466787398e+01,3.106495122543172016e+01,1.502516479578727626e+01,2.897114694391509815e+01,1.227901137935087306e+01,1.748003506093040826e+01,8.180244623402646909e+00,1.400033314728309009e+01,5.400943787144916541e+01,3.980771098458087920e+01,3.294360305134775047e+01,4.388949331330260328e+00,9.849516888253980085e+00,1.594257931965083230e+01
4.238298736190612814e+00,1.732801337985990742e+01,2.884286612472882894e+01,1.596806450788229803e+01,1.867326303880125238e+01,1.423567450088163255e+01,1.857423365515995073e+01,6.479161612283334648e+00,1.507816460724275487e+01,6.386571738227669925e+01,3.776656619730290743e+01,4.735037602384675637e+01,4.259036033990151182e+00,1.152702946114472482e+01,1.375151400675972369e+01
4.305283725441028331e+00,1.795782239982955986e+01,2.891569157268148871e+01,1.593784827684591043e+01,2.122156003504440491e+01,1.235545424989570407e+01,1.786358011135581592e+01,7.342245216662660390e+00,1.315813487133029014e+01,5.381783690604925852e+01,3.658483436926221088e+01,3.065000569491045468e+01,4.438755727703119547e+00,1.078895098676497000e+01,1.495185510092705528e+01
4.606356379142586555e+00,1.719490686274763647e+01,2.869586459483111440e+01,1.253220134022549459e+01,3.012727028179408961e+01,1.219829198456133490e+01,1.878258170045359776e+01,8.362324050725513658e+00,1.324774541176429565e+01,5.952290769783178348e+01,4.043856371539751393e+01,3.601624964630805437e+01,4.509197085401938310e+00,1.017699640868558930e+01,1.479710213785264017e+01
4.170960602173821030e+00,1.617523616081836835e+01,2.886495399109784543e+01,1.283548064033686842e+01,3.072319041796065164e+01,1.335014967440872624e+01,1.888933069908523521e+01,8.822849189826330374e+00,1.477329091460193133e+01,6.052262306908230727e+01,3.909879927176424985e+01,4.626530080198690342e+01,4.205436739534001767e+00,1.272657640155218317e+01,1.790328019789924596e+01
4.372221889777611281e+00,1.739305420322992290e+01,2.946813430049099836e+01,1.296685734698507630e+01,3.135685275699270136e+01,1.374626794939788610e+01,1.846031558237005044e+01,8.810471601083245119e+00,1.368393446960325477e+01,6.188600606609423238e+01,4.447552462310343913e+01,3.494192246032771720e+01,4.406308065217213965e+00,1.292595211269199318e+01,1.834255224361064052e+01
4.374253764428132740e+00,1.630855842358640473e+01,2.993076531380411609e+01,1.420544657375644704e+01,2.707515266153328071e+01,1.447260283615600152e+01,1.780841365931095410e+01,8.922218254694520567e+00,1.637899501947099168e+01,6.265795603853884188e+01,4.381916993863286081e+01,5.208542675963956015e+01,4.286742978407396265e+00,1.248021859997422212e+01,1.782322151963958135e+01
4.599858467218349567e+00,1.630967371933461862e+01,2.809521817529047638e+01,1.254392410844083017e+01,2.376757259984189474e+01,1.412368069492756106e+01,1.860149798270610333e+01,7.758082455285864931e+00,1.392617589810812362e+01,6.451999984939682520e+01,4.016788212104211908e+01,4.676190528607603625e+01,4.355084358669708777e+00,1.410817753359985893e+01,1.709158431301653636e+01
4.452883194985740367e+00,1.777773572897825716e+01,2.776732312687229154e+01,1.272996610198011247e+01,2.826774331561828291e+01,1.240977215891261309e+01,1.801579922636557640e+01,8.417289927787424020e+00,1.210366042339618531e+01,5.767415024407070234e+01,4.120684885001224984e+01,2.804286787732279151e+01,3.933460163683261790e+00,1.423426530424340974e+01,1.748557642871540097e+01
4.116749820157804329e+00,1.825861544520741475e+01,2.833252475849047158e+01,1.311300579411062017e+01,2.253305732497248570e+01,1.189475342347337161e+01,1.873329019023624298e+01,8.401108600419073369e+00,1.263354461425148934e+01,5.712022598379262917e+01,3.897373560291796935e+01,3.338879830111585534e+01,4.137730479850779908e+00,1.439644266522983251e+01,1.701196752751728170e+01
4.384031295053077315e+00,1.545214688314561435e+01,2.904644115613014321e+01,1.297116285432012717e+01,2.745978611728124008e+01,1.338640509101508513e+01,1.802242414009185723e+01,8.127463935845826271e+00,1.459814370630182978e+01,6.092135095368101361e+01,4.218235963909443598e+01,3.654180021042181181e+01,4.380844513827470976e+00,1.397854115109280926e+01,1.866241294149431340e+01
4.410120619100165840e+00,1.643592634952679532e+01,2.929894959041442348e+01,1.376684891291093038e+01,3.123824505755434089e+01,1.513363378036771323e+01,1.904150077674272978e+01,8.657416740385066589e+00,1.521499614160922498e+01,6.769022034589760040e+01,4.586571408493254864e+01,4.559602789572097947e+01,4.217976877338183606e+00,1.275158209817392141e+01,1.777818340004675335e+01
4.430578432514856502e+00,1.758150652688049931e+01,2.886985844419061564e+01,1.257381518165382417e+01,2.554811866987886759e+01,1.234073212651049190e+01,2.051281008973924358e+01,9.595659017255407264e+00,1.237939642101178173e+01,6.337588246436560979e+01,4.347232540694058400e+01,3.401535641046674385e+01,4.314952284164682794e+00,1.382842550925272462e+01,1.663900027130992498e+01
4.444411102097611810e+00,1.616700896171437307e+01,3.011341701019295769e+01,1.752898434989528553e+01,1.699362616678972771e+01,1.333828310413220208e+01,1.879925764893446427e+01,6.408223886229058586e+00,2.050307762272991141e+01,6.066927322935792688e+01,3.512532382772450035e+01,5.696757587404671597e+01,4.504488382738611740e+00,1.334268881328028300e+01,1.822248523278898347e+01
4.323479402762540502e+00,1.742145606463229868e+01,2.930690069861377012e+01,1.300889219086029414e+01,2.598848562198308798e+01,1.323420908491413073e+01,1.812462347669757179e+01,8.140076074328044697e+00,1.475033614374378566e+01,5.962908514214184663e+01,4.201442452678971051e+01,3.805990692608371262e+01,4.248592119157907021e+00,1.265908706128826289e+01,1.649833856512427843e+01
4.348143144557397477e+00,1.702502257587862644e+01,2.874182198043860836e+01,1.168764452584155400e+01,2.763389586316328206e+01,1.519559311799793733e+01,1.967341935973815836e+01,9.365246497187314390e+00,1.139263764163072601e+01,6.891994339846381479e+01,4.681608196838171665e+01,4.062904808503203924e+01,4.251155278496471901e+00,1.438678025952357409e+01,1.672037528523097549e+01
4.197516053858278084e+00,1.720460217069966902e+01,2.822247939416029539e+01,1.144410178072956796e+01,2.820929625693790399e+01,1.220984204321524480e+01,1.878874575590035434e+01,8.153904617050095283e+00,1.453661061305237290e+01,5.940058010876258976e+01,3.982412264144501535e+01,3.842296286334740074e+01,4.448815643459062663e+00,1.271919168722646276e+01,1.677086190127457854e+01
4.345033044381199083e+00,1.588371498521211045e+01,2.833137546725279066e+01,1.276247090453205679e+01,2.191089436873997442e+01,1.462288341016676085e+01,1.769695307811600671e+01,8.473975828964135815e+00,1.225482144366680082e+01,6.384810252262843022e+01,4.353105051145892190e+01,4.171934969276615846e+01,4.065928811564461398e+00,1.495286953260692187e+01,1.699836939984905726e+01
4.462050361304473967e+00,1.803384196506010539e+01,2.859348892538764630e+01,1.189913843990139419e+01,2.747989154671151724e+01,1.250757232090278137e+01,1.895089716070513575e+01,8.588770913466355239e+00,1.482068844036127686e+01,6.003683216402283307e+01,4.059659690795415088e+01,4.254346977281431919e+01,4.368340470110585905e+00,1.274942639413085388e+01,1.663856631604376446e+01
4.471417805769286602e+00,1.881551482865333114e+01,2.931582049748393359e+01,1.586814976590385484e+01,2.333149734242180884e+01,1.157329530473634804e+01,1.780632207872587003e+01,7.251122451382179257e+00,1.710417485743136368e+01,5.271200503445850671e+01,3.359229942023890914e+01,4.272056530343876091e+01,4.360978446313032109e+00,1.223384269638965804e+01,1.801381656254178054e+01
4.478729305081629697e+00,1.605598467894398951e+01,3.054531438511557440e+01,1.430736929113281164e+01,2.216913544604532760e+01,1.357786621263201887e+01,1.894714675317333175e+01,8.209321113813928150e+00,1.237790159003515100e+01,6.185028486266239867e+01,3.830049380120005509e+01,4.512527089857765361e+01,4.423776043298708771e+00,1.414019463972892865e+01,1.652301037832720709e+01
4.291565936514292190e+00,1.720409657626844435e+01,2.867474856037978626e+01,1.522650701331926193e+01,2.164806650905319430e+01,1.264057762133907126e+01,1.873698814245010169e+01,8.404383014218513637e+00,1.608710421255006651e+01,5.985086540343446870e+01,3.758362197753139355e+01,5.061452490472184707e+01,4.075910819769790194e+00,1.319653416671087598e+01,1.785626625184456628e+01
4.174987276360965893e+00,1.743349085038662238e+01,2.911038488585063178e+01,1.514501466013283171e+01,2.243148113944961253e+01,1.233437847305561164e+01,1.749966929531606041e+01,6.411958250468232201e+00,1.562757293965375638e+01,5.253036069815097875e+01,2.806349762071408094e+01,5.244064079756937957e+01,4.320710476130658506e+00,1.272575163829949219e+01,1.661335338368291303e+01
4.363610356019665737e+00,1.753899778724962388e+01,2.933996937735851063e+01,1.420701737087109606e+01,2.623344453181771740e+01,1.127906752714089578e+01,1.773638601047999686e+01,7.475920887428226358e+00,1.473090373185507573e+01,5.272327182165366111e+01,3.364146525799237963e+01,3.871126629255611817e+01,4.189201959338941350e+00,1.323643697576136091e+01,1.757054490262019186e+01
4.263834410199160097e+00,1.604997613863136507e+01,2.744038493350889496e+01,1.268446376371106687e+01,2.771187753365614270e+01,1.298691167644298261e+01,1.886553701753252099e+01,8.460918876795748389e+00,1.243757541217145679e+01,6.153752811362873842e+01,3.840144964529315530e+01,4.045800012515103816e+01,4.225497430475194882e+00,1.371611397292289070e+01,1.665792527763506570e+01
4.566568865228844309e+00,1.769175433607857428e+01,2.972034964050725847e+01,1.395172037252098463e+01,2.999436914418313194e+01,1.258908282498747511e+01,1.735185237370868094e+01,7.519300538584699822e+00,1.692093498585202838e+01,5.510671453096340144e+01,3.568494454700190488e+01,4.782997696417787381e+01,4.227659246145694993e+00,1.260759332080377249e+01,1.855692831869136583e+01
4.401719388378202424e+00,1.694424565471013722e+01,3.023618424474026511e+01,1.318163368534864688e+01,2.283003893419448005e+01,1.293939078809951226e+01,1.905620698004987190e+01,8.715851973135764652e+00,1.173054366082808464e+01,5.933518949989114333e+01,3.918907305398880681e+01,4.165421544436230761e+01,4.326990341225123160e+00,1.412609232084882294e+01,1.558338316767559384e+01
4.165534917240714563e+00,1.711086694734489555e+01,3.024359090102008096e+01,1.369536309438099941e+01,2.210065626570339958e+01,1.336196541423277218e+01,1.912621187670102429e+01,9.164811573032659808e+00,1.162195958242365634e+01,5.964888150160123814e+01,4.437055157904218561e+01,2.639626035392244674e+01,4.451041075635569833e+00,1.428954504483880683e+01,1.665709496846201887e+01
4.493007129124023002e+00,1.679131387482797422e+01,3.004373496880868188e+01,1.410476298590479338e+01,2.375058750488219061e+01,1.293659314823068662e+01,1.854761271628228059e+01,9.087329180939413220e+00,1.262047845296989301e+01,5.810821075997083796e+01,4.358592004103441298e+01,2.882102504116743447e+01,4.417995617994415092e+00,1.295477819250842266e+01,1.696412406657829663e+01
4.427711582365189358e+00,1.716959612960415882e+01,3.040267866446308886e+01,1.379982760120845064e+01,2.407356907291882564e+01,1.289352669720708278e+01,1.849551616778027707e+01,8.382516291830659938e+00,1.278449757032601575e+01,5.956362361739247291e+01,4.056141570975689348e+01,3.813316536882171448e+01,4.470097352288353143e+00,1.361166289566537024e+01,1.686930420941533626e+01
4.102112780367822786e+00,1.744546994375691185e+01,2.871114993836456719e+01,1.274679261766068272e+01,1.939885192326512353e+01,1.267714349223821380e+01,1.844438867333649767e+01,8.620748122151024262e+00,1.217577159851708046e+01,5.828528475241746776e+01,3.935662206551321418e+01,4.193950893474408304e+01,4.344335041095252592e+00,1.407303403628307059e+01,1.541294799436577456e+01
4.334120315569768955e+00,1.691695773878667097e+01,2.916230225794775777e+01,1.255123854654767079e+01,2.432470030489847090e+01,1.202487187900687005e+01,1.864765566149927878e+01,9.110023919197848485e+00,1.169087995527180546e+01,5.836182789226624124e+01,4.183938911980080633e+01,3.226735729697605137e+01,4.363298026347379732e+00,1.312591164278587463e+01,1.596727063735556840e+01
4.306956426469112031e+00,1.712411573206234650e+01,2.936638109871669755e+01,1.314574254915353002e+01,3.149231897838503969e+01,1.159944141400138129e+01,1.870180804757738358e+01,9.195189717037528965e+00,1.483210489404034682e+01,5.651943331783714086e+01,4.137893353343673652e+01,3.258225765981718780e+01,4.202969854804046612e+00,1.243610854213477879e+01,1.826928133262114784e+01
4.657699824344571304e+00,1.749059081913699032e+01,3.003979118983397711e+01,1.772361141614777580e+01,1.676313571391733248e+01,1.325967244889293895e+01,1.857630920092297444e+01,7.246039352671703071e+00,1.621200423492534171e+01,6.066000666256535112e+01,3.745464050616356388e+01,4.661515356792450859e+01,4.350748723613728330e+00,1.375810213849761432e+01,1.772584756351448121e+01
4.273343149426184873e+00,1.804860110860584754e+01,2.825343507966668000e+01,1.616563375274150616e+01,2.215366414989341948e+01,1.222985610761447717e+01,1.856652410452918645e+01,6.799073202679640993e+00,1.992825361178972798e+01,5.835742959797835283e+01,3.289767426664874961e+01,5.556341619312212998e+01,4.516077549092379684e+00,1.317034251975538162e+01,1.899935188699738120e+01
4.524327386927645023e+00,1.691963673985683414e+01,2.958798212917831449e+01,1.563657262588787944e+01,2.608139312320904324e+01,1.292822205684724857e+01,1.859012880932261780e+01,6.680731312472199868e+00,2.055575031974356293e+01,5.696527926814653142e+01,3.044404413302204659e+01,6.508000261533392461e+01,4.327008163516142147e+00,1.234246655736252762e+01,1.796520144767946192e+01
