1.968710659129953022e+00
-2.366849777335989113e+00
2.525488875804504207e+00
1.831347749033440220e+00
2.882688747970268750e+00
2.853737296445612248e+00
2.562635196802753867e+00
2.626886651114787696e+00
2.534490763069769059e+00
2.616725722348781646e-01
-4.936227774479244323e-01
8.762427175583478167e-01
-1.987452071798525011e-01
9.040052377474104839e-01
-7.431203405946458507e-02
-1.044881659709649524e+00
6.629188160003554042e-01
1.486651233870533106e+00
1.214935123093968450e+00
-8.313754039081171221e-02
8.799259670366625929e-01
1.161957728699039905e+00
1.054586488854176496e+00
9.217700413918002988e-01
-6.840423815600699120e-01
-7.764770064148096562e-01
-2.671825383366574602e+00
2.795775458998494667e+00
2.196904999244585710e+00
2.708811040332612219e+00
2.349498072123838099e+00
3.034498587282842053e+00
2.897647586152325871e+00
2.749760553768812787e+00
2.743214460855152748e+00
2.637032008621432055e+00
2.751554607642133110e+00
2.642981198998018755e+00
2.468286871436701446e+00
1.086234969567437370e+00
6.758832159999670353e-01
3.569226286222773603e-01
-1.020411210576181560e+00
-7.219466966702249300e-01
-2.674406338206498090e-01
-2.906806299011756578e-01
-1.013393284242235737e+00
-2.621119278575511302e+00
2.137697666164751986e+00
2.179965433038151268e+00
2.477804330455224857e+00
2.269183155356301107e+00
-3.075536881570287484e+00
2.679878272755479074e+00
2.962591337952495962e+00
-2.203653886694171060e+00
1.824401853885863511e+00
2.481891595924033744e+00
-2.934666529730322271e+00
1.805771457584830042e+00
2.497163761316025354e+00
2.396470837619813832e+00
1.791774496889885215e+00
-3.129346373525717429e+00
2.546234832159058215e+00
2.221075012545634220e+00
2.314102471481584988e+00
2.173861064357783146e+00
2.011062516935801181e+00
2.484955894164052381e+00
2.087546272788340929e+00
-3.034612687092748118e+00
-2.489140257006882351e+00
-2.192085337382959853e+00
-1.950042368685279914e+00
-2.197325689825827322e+00
2.369122137916850335e+00
2.411504213639076522e+00
2.490823573519237222e+00
2.561852630234475292e+00
2.606644412818863721e+00
3.039727127641898452e+00
-2.099837540091895605e+00
-2.771565015247740682e+00
-2.668289027908808286e+00
-2.493914831238629670e+00
1.335281091909475526e+00
7.177685769415115269e-01
9.249888733137804353e-01
-6.694196398315177543e-02
-9.589059732711422424e-01
-2.160687931240721227e+00
-1.880480379134616076e+00
-3.032269279919005633e+00
2.547491698646037861e+00
8.670146433545954379e-01
5.527485028554962598e-01
-2.909205546025567246e-01
3.761633772146932841e-01
3.779874261515453471e-01
1.156441881329177024e+00
3.382635651421204148e-01
9.044181952883024733e-01
7.592737672933131954e-01
1.219411013658759035e+00
5.594043822931827892e-01
9.026531758712244002e-01
7.837458690283869434e-01
7.157515856547909117e-01
8.621415147440452120e-01
-8.212900448251827523e-01
-8.087336891758218904e-01
4.596979395131134405e-01
3.076210959661254130e-01
-3.639547987682139052e-01
-2.503658957365281768e-01
-1.279709958414919913e-01
9.738291764900218750e-01
5.939607704156029122e-01
5.807390853750132864e-01
3.661116431223516154e-01
-1.567695314028875464e-01
1.053740246268496800e-01
4.436702310726595155e-01
8.131365104996191029e-01
7.495382976745113002e-01
7.809615598712994489e-01
4.159165397734175262e-01
-1.638525231366730617e-01
7.516124679679638820e-01
8.299921478064127556e-02
-7.455140619632680821e-01
8.183050092710245638e-01
4.661593556427912066e-01
3.627404252143114349e-01
4.029308328451575161e-01
1.157453037514510674e+00
1.052520552841835322e+00
5.622698635632034092e-01
8.251156817725636694e-01
4.106133889499341549e-01
1.077152000244099739e+00
1.032222731604687915e+00
1.290561032975972910e+00
1.281845109349035727e+00
3.830426970999892267e-01
7.782702982714401196e-01
4.068232545519070431e-01
2.819305556919796119e-01
4.164607650360089841e-01
5.855293200559440470e-01
4.078333082778810015e-01
5.734291400743949385e-01
5.167215343608414502e-01
1.078913420329568940e+00
1.042973792839355873e+00
8.153830034837127316e-01
6.447487081572660372e-01
7.599477723567842347e-01
6.708489700026836200e-01
4.699367046637523831e-02
2.697052087722116506e-02
3.078020700126968823e-01
4.976870767038411580e-01
1.778299806302960917e-01
1.028440613853022656e+00
4.978166263975009054e-01
1.188031577203560563e+00
8.974123912169715833e-01
8.565345116949810711e-01
1.004788061743697947e+00
4.800591225280556595e-01
5.166171578020706256e-01
8.949414100632322455e-01
8.920109189875502498e-01
7.140417903595962512e-01
7.783936147609180622e-01
2.489668159000661962e-01
8.379400728898424022e-01
1.123511546565680197e+00
7.496587304454337408e-01
8.288270583429745431e-01
9.669790419532018344e-01
-3.613014584841796606e-01
4.138781240653833793e-01
-7.283429560358576360e-01
-2.755960483101787539e-01
-6.309452737408240974e-01
-3.003650202960709420e-02
3.185313878480289795e-01
2.264031535225812797e-01
8.945823305007437609e-01
7.196030163153963599e-01
1.054696200217188684e+00
2.039044070019547128e+00
9.412685365873371124e-01
5.806845389126219503e-01
4.949029845306252562e-01
9.189343495672339657e-01
7.270242011785215119e-01
1.358203174050109263e+00
3.176465681898105742e-01
1.156235982654032046e+00
6.555326035706551258e-01
1.785749722302648390e+00
-2.002307773446284911e-01
1.333370738409213940e+00
-5.815524781049101755e-01
-8.254365494899668088e-01
7.908040674079465093e-01
8.938169572751628600e-01
2.462598646729556418e+00
5.005926480444508053e-01
4.610272765193360600e-01
9.452153076116599495e-01
7.503981008648186179e-01
1.100226263746591160e+00
2.944036057586215879e-02
9.404613100516241442e-01
5.002192112253297518e-01
1.066467553336445384e+00
7.192151521056654451e-01
4.107362849714434327e-01
7.038981372224675237e-01
7.347356925053226684e-01
1.144761175342665860e+00
6.963534992506935639e-01
5.283263807489665398e-01
4.989746817194793405e-01
7.423768980468319345e-01
8.625800653856237066e-01
8.803108524718162853e-01
6.737751378212608611e-01
7.915598585748262472e-01
1.377069939989434166e+00
1.124947996450654353e+00
1.078971444214158026e+00
7.165577888533377626e-01
-4.100040797457402131e-01
8.093591146740803932e-01
1.717600491768557447e+00
3.127398812484738055e+00
2.364819169403713062e+00
1.946053694950641511e+00
2.482737541508602597e+00
2.561768241724850625e+00
2.572961068092435077e+00
2.638968452070226345e+00
2.704782655052974771e+00
2.926421020860717093e+00
2.434585112837602150e+00
2.243023453054640015e+00
2.112109609726387838e+00
2.865134626569268761e+00
1.947609343666199200e+00
9.521295827997772188e-01
9.814554088968890921e-01
9.014925922860955732e-02
8.744709212668030363e-01
1.024020193132044509e+00
5.635193528815458652e-01
9.102274287622983406e-01
9.898766855451288649e-01
6.903757651988370325e-01
1.059953812303504606e+00
1.511525518075330365e-01
1.106880270746548822e+00
7.994745210370648447e-01
6.533607114665691551e-01
2.440938725875528625e+00
8.475565236522624168e-01
9.593828626200613385e-01
2.238922717963226228e-01
1.000420629979950071e+00
1.034046891187052175e+00
3.415662979341916872e-01
3.463995781967693643e-01
4.716084529141683634e-01
1.144614752741556885e+00
1.602392647896173916e-01
2.881609070553222685e-01
4.537633739579645109e-01
2.704416153427584124e+00
1.929490946657151484e+00
2.963740585669414340e+00
-2.356656901128759252e+00
-2.865101815464118573e+00
2.481245325456017614e+00
2.389540425755521280e+00
2.258669922284024523e+00
5.946815906031253096e-01
3.923211972962659111e-01
2.358483553827534607e+00
3.441701872264970596e-01
4.778741695935386224e-01
8.283336306123292303e-01
1.016306261784724052e+00
-1.246489486963036963e+00
7.354250709774132755e-01
1.274442145988029296e+00
9.588403668125187185e-01
7.115388575112266967e-01
8.738008501903342662e-01
-4.329766068896062081e-01
4.623108867710341574e-01
3.495148888642482087e-03
-3.290035825490389976e-01
-1.132069061145229982e-01
5.097438539865335461e-01
8.940673370537494113e-02
7.563703132771146809e-01
5.770366134080761045e-01
7.270411301338162158e-01
6.384389965703657355e-01
5.847191974389185365e-01
1.047462370933589959e+00
8.622642430741271902e-01
-7.486973183222154216e-01
-5.650941590812261772e-01
-3.349277452248771714e-01
-1.742749872801665711e+00
-2.332850845812853180e+00
-8.402913553708151184e-01
-9.670715336532519357e-01
1.978447826859931202e-01
7.156324723309859248e-01
7.388800669371520247e-01
-5.012921443138353972e-01
8.244366007300666377e-01
2.575227002939825191e-02
-2.662498787231153408e-01
-2.317858335267151570e+00
2.001660743175242896e+00
-2.865439345801666260e+00
2.947445166157129037e+00
2.316415455817160574e+00
2.045251091068015725e+00
2.280031941942641804e+00
2.599259288804908863e+00
2.007393443097133634e+00
2.516520153017537176e+00
2.596679614103297506e+00
2.669450988319642892e+00
2.549205846729715397e+00
2.483323840785915948e+00
2.366483491695027030e+00
2.353565170500074633e+00
2.758618871607227518e+00
-2.184811588785798619e+00
2.715861753523495903e+00
-2.143649696681177108e+00
-2.341541672070454716e+00
2.480609296674214370e+00
-2.342137308605047430e+00
-2.521590939171724610e+00
2.374136266311448029e+00
2.579684655802157778e+00
2.213565154047452133e+00
2.292000739138204235e+00
2.738310545127706330e+00
2.266644416670883899e+00
2.048568113830365078e+00
1.856651467527991262e+00
2.317047908330766681e+00
4.008427544336803372e-01
3.600732164261340462e-01
5.974046796055748620e-01
8.148833876325883852e-01
7.208979181633269340e-01
8.072699380216767917e-01
3.771345761978595612e-01
9.450032528915606189e-01
1.078318808439367782e+00
5.220443790441533505e-01
4.433355162487636614e-01
1.253548833875775426e+00
1.049130514823596982e+00
5.892691350454806187e-01
1.152613139269413445e+00
7.692915006480864903e-01
2.131335664508875270e-03
1.087845630940988295e+00
1.145721310462954667e+00
3.625085701151017359e-01
2.886304293738316540e-01
2.795510093147001579e-02
1.098415938005338877e+00
9.712553503609484551e-01
8.277408048210722624e-01
2.253869980182879318e-01
6.517519950546393215e-01
5.017112274893301693e-01
9.520595553952833079e-01
3.582921773248442521e-01
1.170091585522752498e+00
2.726479428296398888e-01
5.387050150570191764e-01
2.239654334286669712e+00
2.375364924895656316e+00
2.170456741966086511e+00
2.213799241576917876e+00
2.500212266307588305e+00
1.662594055801452253e+00
3.085350771349224530e+00
2.254267301285008074e+00
2.534882262473673542e+00
2.383037255150822542e+00
2.525070392067191083e+00
2.563300074678893647e+00
2.415573079597329809e+00
-2.712516606426065291e+00
2.463843061504084275e+00
2.395601204554037356e+00
2.900370442528780845e+00
2.850344333464211122e+00
2.365110863423037113e+00
2.221918077658822543e+00
2.475609816576001432e+00
2.827371680320704517e+00
-2.679912775934686131e+00
-1.886708140289144353e+00
-2.704117821405100042e+00
2.215774235883403609e+00
1.981989325270993696e+00
3.091238445868973894e+00
2.810011992248734991e+00
2.574773305357817677e+00
2.861942535162906420e+00
2.188873067282055551e+00
2.838524103225154249e+00
2.580007457546619865e+00
-2.422227707966536858e+00
-2.094934272988359325e+00
-2.539925549997096521e+00
2.385287920141989648e+00
2.725179456293378433e+00
2.081873273692832260e+00
2.933865796143041660e+00
2.527712218325964155e+00
3.027991729343370686e+00
2.335554793969099485e+00
2.137179890998067933e+00
2.748107583587265257e+00
2.521450681336157018e+00
1.934568812067744892e+00
-3.137987131132019325e+00
2.342199679320472239e+00
1.982507386961403384e+00
1.965849686186409429e+00
2.561844656248462915e+00
2.553366146386503832e+00
2.112073121594904457e+00
2.624964934764808522e+00
2.462610286167011164e+00
2.673935740123477789e+00
2.907357754143168549e+00
2.857695843642626077e+00
2.527891810403756434e+00
-2.126359715898197944e+00
2.200493896043563602e+00
2.713814934345290197e+00
2.549538699266740593e+00
2.213918462140862964e+00
1.929618380039094250e+00
2.330609928874563863e+00
-2.987849002129443043e+00
-2.753066454053030299e+00
-2.969294113491677933e+00
2.608432911271271415e+00
-2.455519926429426736e+00
2.813075430674741195e+00
2.679635867636235513e+00
8.321347856378370489e-01
5.316418198978992704e-01
2.444846673818831528e-01
1.856398148156633010e-01
7.459173658063098511e-01
7.210446653444921861e-01
9.221330651731032280e-01
8.910361863205241706e-01
7.941757697148158490e-01
6.848004875378727041e-01
-6.743489486885446693e-01
-1.684290650297371739e-01
3.795344881904045287e-01
2.111661444725563275e+00
2.778027497097070420e+00
2.504774113003516600e+00
-2.286408052677542102e+00
2.141725707947310653e+00
2.667126285814518383e+00
2.338721593498471751e+00
2.364828582129693046e+00
2.501118960256467183e+00
2.200121301243229688e+00
-3.136814220321385349e+00
-2.673957788128570545e+00
2.766743140808062940e+00
2.309284313029239755e+00
9.135472144322025478e-01
8.525529782710946636e-01
1.058101924590499676e+00
7.181806516800312012e-01
9.215924710893732552e-01
1.161102557017019477e+00
7.752277578649924283e-01
6.136773251023801556e-01
6.240262637824053327e-01
1.547771627987933607e-01
3.212907525317620916e-01
6.462587400316953667e-01
3.032765222025678997e-01
4.850672545485537057e-01
6.904611024169261535e-01
8.558458340314545332e-01
5.288127026478994797e-01
1.576064547973485830e+00
-2.951104409859376387e-01
9.160594516256256314e-01
9.608640612591798913e-01
-7.225555141109742951e-01
-6.015197707219929191e-01
-1.041617023972220224e+00
-2.354840013019554867e-01
9.802651781954412336e-01
7.129353712355785966e-01
9.193233860650921185e-01
6.194312854874503005e-01
1.337507204763360713e+00
8.279156625834059868e-01
1.116774928791222976e+00
3.176157264807820679e-01
1.029785087724280013e+00
1.433010636617760403e+00
6.981623465130104567e-01
-4.068068236885620807e-04
5.747428250228195923e-01
8.532851969731526376e-01
8.870550806457787596e-01
-4.026658463797819915e-02
6.371048632156367519e-01
6.883914200070055944e-01
3.197895819239131021e-01
4.653004706163201831e-01
5.826691968639505781e-01
4.488484032122025957e-01
6.022316918327174085e-01
3.923259191306122107e-01
6.161524574608764349e-01
6.666169850390331053e-01
-4.065390160876720116e-01
-5.466650849400107592e-01
-3.150327770603245092e-01
5.813236100193538425e-01
-7.723219122407233295e-01
3.853313097501946949e-01
1.178282151298350566e+00
1.084537186089143290e+00
-4.635851594709907708e-01
-4.833725794181331081e-01
-2.762379096714123183e-01
3.630083115160545049e-01
5.979088236665232037e-01
5.093555223607830751e-01
6.418246412488273211e-01
7.147712891464874652e-01
8.067884585274411879e-01
1.033930708132247300e+00
6.645609536278500595e-01
8.518062655238566316e-01
-1.866151471964656167e-02
7.844781291298770221e-01
-4.961918193784064512e-01
8.376741369965616801e-01
8.096253237456985108e-01
8.557012404015401641e-01
5.955873787267481623e-01
1.003364765955014670e+00
-7.649122191059417597e-01
-2.615976869774116476e-01
-8.898038649325414884e-01
4.200663000927121193e-01
4.192545400454422699e-01
9.841057809274376122e-01
7.434294825343955582e-01
1.258842053895269153e+00
4.267119650230672967e-01
2.830192190934970389e-02
9.022287296064285256e-01
-2.890915140800736638e-01
8.235234146286366519e-01
7.284981344649876789e-01
-1.386161558933775850e-01
-5.903526093919883033e-01
-4.118404068713703015e-01
-8.708031104510943754e-01
-8.286741376933800529e-01
-2.161408246831919566e+00
2.633203089518715068e+00
2.517930479671262489e+00
2.302038333981076157e+00
2.660072647035122362e+00
1.688019163598554417e+00
-2.824511513692311571e+00
2.630369352700961727e+00
2.550303624920084111e+00
2.580006849256530010e+00
2.273565820646044511e+00
1.890432245828231217e+00
2.205206703803975099e+00
2.484165145032668498e+00
1.838184955199811288e+00
1.678182849210700045e+00
2.274754024623677484e+00
2.241148056478348138e+00
2.914066393522135368e+00
2.078868659304996758e+00
2.935232372133003587e+00
-2.918292556317408248e+00
2.084426418830856775e+00
2.653929257828021360e+00
2.458217355482715138e+00
2.652321156612035935e+00
2.229140849492495580e+00
2.490672011524298846e+00
2.481187698229525562e+00
2.454851667985265884e+00
2.696578693403906879e+00
2.786642698786946593e+00
2.257888662597209883e+00
2.684816984898902525e+00
2.082866483375362066e+00
2.972572957980739616e+00
2.030923225964051504e+00
2.535941333694676558e+00
2.407331964591233664e+00
2.810150585614401120e+00
2.847950090452376237e+00
2.551162819748663324e+00
2.332934284717990359e+00
2.399229498685181206e+00
2.693923255583419607e+00
2.777377079135394666e+00
2.086021991916505947e+00
2.682233885051385158e+00
2.436925602762767262e+00
1.997197213112941849e+00
2.676662071253961717e+00
2.413589016858255221e+00
2.556708715904515206e+00
2.926827906631716658e+00
2.398144340048414591e+00
2.800252580878354713e+00
1.971673207447683041e+00
2.779332465470353508e+00
2.395050987790004360e+00
2.840850742393609796e+00
-2.960354586112051933e+00
-2.587259749134183107e+00
2.520768017158135699e+00
2.837729814646951176e+00
2.139705303797500235e+00
2.336423514391733569e+00
6.636158707110523247e-01
4.317677981612476068e-01
3.673447985373722302e-01
5.623191418338284731e-01
6.326374006768207270e-01
5.001120251470948519e-01
1.136540118954373346e+00
1.231287778942361300e+00
2.630073734478863834e+00
2.368322446667666004e+00
2.739933024003697426e+00
2.378027568228287869e+00
2.397272142035037135e+00
2.457750717511903549e+00
2.278889170164438482e+00
-2.652251873427819984e+00
2.071639339431730509e+00
2.506953241541080679e+00
2.462732035843723466e+00
2.277245192407423069e+00
2.617178780619636491e+00
2.047668973150047034e+00
2.362319760035227478e+00
2.443799711729672808e+00
2.551222149736332323e+00
1.994144513550371700e+00
1.227672375777203451e+00
1.080591487393853134e+00
7.487499686107863539e-01
8.884787524755464183e-01
2.665171312832986250e-01
7.479962140344632582e-01
6.510735353436131190e-01
1.247176007083371285e+00
8.513736505047176939e-01
1.240779643519528630e+00
2.448865679357012937e+00
2.273733077842915673e+00
2.258320024571349283e+00
2.284088694677880671e+00
-2.543367721527025616e+00
-2.483239685637363525e+00
-2.622064798825048282e+00
2.311740943787883751e+00
2.592344101279848712e+00
2.743476121596011730e+00
2.244237071757005708e+00
2.514223675011211689e+00
2.648411853159969631e+00
2.295384928648283474e+00
2.208242836664062736e+00
2.273965982094083405e+00
-2.894590118208762775e+00
-2.665640731838854638e+00
2.110419385162817463e+00
2.081716610781795485e+00
2.290828069319960303e+00
2.886282465099472727e+00
2.321398065390722909e+00
1.791742527693946707e+00
2.781502265680283248e+00
2.491495592978063112e+00
2.452059308310329477e+00
2.618636255321800554e+00
2.518070840908832597e+00
-2.553904260726545417e+00
-2.425904388053508942e+00
-2.437357856603078687e+00
-2.917326499391931893e+00
2.576737878237511659e+00
2.441203679614553756e+00
2.355056982701101198e+00
-3.020337345337166468e+00
2.418235880974094698e+00
2.425523974374537151e+00
2.154969253762412329e+00
3.013082775896695598e+00
2.275182607420947356e+00
2.805114991335375230e+00
2.138720247958783460e+00
1.867136449370474738e+00
2.542238383558108161e+00
2.181154599070273203e+00
2.658492218971479470e+00
1.238729414010824259e+00
5.567907942446960190e-01
-4.285588475798969565e-02
4.801209564814812314e-01
9.904345001862835396e-01
9.696948677773331582e-01
7.345918813504777045e-01
3.556415408119840693e-01
8.538316802606541467e-01
5.111903186168578195e-01
8.566223899855895940e-01
-5.450626682987040894e-01
-9.215820697929389960e-01
-3.365894100632135233e-01
-4.658691009902013458e-01
-5.535900784913575512e-01
-9.203864865455539668e-02
5.230130233854897170e-01
-1.449613805077901274e+00
-2.615453554635378097e+00
-1.170388044036794861e+00
-7.889539789219066623e-01
-2.941698121120293052e-01
-4.268138878255492430e-01
-3.871742399504445875e-01
6.775783715515083516e-01
-1.004415667992287764e+00
4.867981071103032464e-01
2.639700602078092206e-01
8.960673363329976215e-01
1.014375987363798304e+00
7.742859064521779855e-01
-6.808135596515638710e-01
-6.514092257823812515e-01
4.281145828638726614e-01
-6.859681069014378352e-01
-4.469478990570132648e-01
4.446825288308534629e-01
6.624403244379264422e-01
7.157696742604253703e-01
-6.939936449324861645e-01
-4.987892180165952594e-01
-6.632238896429883956e-01
-7.982912223531249962e-01
9.261725860469663951e-01
6.621929876553304117e-01
7.196512398432712843e-01
-6.573674149325370308e-02
6.789636828693424997e-01
9.583556533476643713e-01
5.089444279038750629e-01
8.607125037227619790e-01
6.583774728270158638e-01
6.666129406787189016e-01
2.244593846516218238e-01
6.021105235820013446e-01
8.034469327031523722e-01
9.795238916456263656e-01
8.657188557196894285e-01
7.209856234581922818e-01
9.595506655092267412e-01
7.574140191443227144e-01
3.022691857001646443e-01
-6.659172022776617128e-01
8.623624514014923692e-01
8.862937850366550685e-02
1.176795589179745694e+00
8.483427600278903302e-01
7.198536754675742833e-01
-7.969418697404473395e-01
-8.344510970509838588e-01
3.070097427672260348e-01
5.665694559359093496e-01
5.570531346391981442e-01
6.135304290583342146e-01
1.089627512443518853e+00
-2.922919843845055501e-02
7.330572468297665845e-01
1.193876337094834206e+00
4.077508794913153323e-01
9.584980631129049744e-01
7.522956888369123352e-01
4.346331279858962615e-01
6.446613742665779911e-01
-6.689766991594767176e-02
-6.676058563801391399e-01
7.484874639677865371e-01
6.035915008566420381e-01
8.495606221004156078e-01
5.685931498901549697e-01
4.965700997867845690e-01
4.733774476044232404e-01
4.440036051671964606e-02
9.203751966198226997e-01
5.288422036020422601e-01
7.438685267468931883e-01
4.827828614997902168e-01
3.602561082559343486e-01
6.317979687769033070e-01
1.103819909433995994e+00
-1.047150981457415142e+00
-1.049006893029214238e+00
-8.653518507719039077e-01
1.740111975057867799e-01
3.133640113800142957e-01
6.794514407674200340e-01
5.059324549227008916e-01
2.790088837815940970e+00
-3.135970227554743417e+00
2.390070618554469117e+00
-3.070140831835234785e+00
2.678282482144784371e+00
2.417584414843640506e+00
-3.045577912167066525e+00
-2.528531302282906346e+00
-1.835139564499638221e+00
-1.457641049700500568e+00
-8.443643071468805994e-01
-5.505830137854936801e-01
-1.333675019911232940e-01
-8.735429645180805558e-01
-6.800121725045598087e-01
-1.083683060165447465e+00
2.984846204744015630e+00
2.405551857404936378e+00
2.799866213595905151e+00
1.987051670586571506e+00
-2.867381298354764407e+00
2.821846526861325533e+00
2.542594632163039492e+00
2.942455087587617868e+00
2.216646587906962118e+00
2.109597837345130067e+00
2.545881414621824046e+00
2.361937873833118484e+00
2.256777840980513261e+00
-2.658735371598957009e+00
2.989552328103939782e+00
2.983907797664841155e+00
2.413283553317420171e+00
2.644016763351189070e+00
2.116744001936769148e+00
2.585301164550098729e+00
2.417599576463166589e+00
-2.494250777969930777e+00
-1.878851727116976678e+00
-1.781128421372571768e+00
-2.641795018158007657e+00
3.049355748441332281e+00
2.532560483246243166e+00
-2.765926670476257065e+00
-2.468915538045970859e+00
1.959487053217642050e+00
2.403235021712768038e+00
2.514730981695885159e+00
2.331357183483632856e+00
2.147860912800735989e+00
2.379984295855420928e+00
3.116824036378018636e+00
1.919916060547750325e+00
2.597913015242401258e+00
2.577164705673272493e+00
2.454595081918141464e+00
2.088833177324284751e+00
2.377627789715464957e+00
2.339136060632668102e+00
2.737786190166334510e+00
2.525570608722990329e+00
-2.850524962238634163e+00
3.012606802806528261e+00
2.141551512587730688e+00
2.048020711570575081e+00
2.462894589482018670e+00
2.628507163799497892e+00
-2.699479540936699618e+00
-2.716490863813897594e+00
-1.177189445344792862e+00
-2.438176049677745372e+00
-2.266949434699058852e+00
-2.487172983367897938e+00
-2.694911355023726696e+00
2.292378163804659419e+00
1.950512536592374113e+00
2.184145212547101700e+00
2.619079443940476093e+00
1.840559952625864470e+00
2.653954424029794090e+00
2.482713114927570075e+00
2.631766915855786593e+00
2.157246036845198667e+00
2.057616857946153122e+00
2.810162301388530182e+00
1.992710295977150770e+00
2.373912745350202247e+00
2.670534857946585738e+00
2.825595614521531740e+00
-3.048109886395572676e+00
2.230531574038879583e+00
-2.680966239044740629e+00
2.543113911941845107e+00
2.299358046303213055e+00
2.593433455032656099e+00
2.515261006563394020e+00
-2.048447430545826453e+00
-2.819922649575201667e+00
-8.896753114411710683e-01
4.880857131746312860e-01
2.804975002847231114e+00
2.997669999168421917e+00
2.077606456394069490e+00
2.895275778459737381e+00
2.235092388891939397e+00
-2.708155670392577985e+00
-2.509668361556510963e+00
-7.827128829314701219e-01
-9.729957385025320704e-01
-2.707157611480857540e+00
2.566919178857305361e+00
2.133910688215891582e+00
1.177721391027054976e+00
6.585682647949938628e-01
4.080461669696311411e-01
4.880393696521558300e-01
6.650861029758832199e-01
-1.735147871634095951e-01
7.709909362973172975e-01
2.449558020091842536e+00
2.376994912739270660e+00
2.631936942772221677e+00
2.324672604952740418e+00
2.384779051255270232e+00
2.571283760052186729e+00
2.357138746482177805e+00
2.883312118590748430e+00
2.755884176882837711e+00
2.239039358231335264e+00
2.246241834658809999e+00
1.853502199176986442e+00
2.250172913135096042e+00
-3.014534612278010339e+00
-2.383716253339733804e+00
-7.877455768729538788e-01
6.902631092653038758e-02
-4.615563883515079180e-01
8.252904452070853880e-01
2.474122739143849448e-01
9.132105492370270472e-01
3.108582271791017759e-01
7.578297317747234585e-01
5.814763063797770970e-01
9.281499123204356438e-01
8.581363200849888295e-02
1.908591467230684735e-01
1.055322226134090435e+00
-3.827510256755337764e-02
9.794195955380217145e-01
7.410323423086669914e-01
7.203325748816312712e-01
1.176320578543770923e+00
-3.377450651273138371e-01
-2.201388778703423921e-01
-8.698991601657596329e-01
-8.617530258406715937e-01
4.442835286120715987e-01
1.272701095559283679e+00
3.512199841351243412e-01
-5.581322015297750516e-01
-8.009679701895925374e-01
-8.190966013853999694e-01
-7.773911448543683322e-01
-4.989777514656940638e-01
6.297543006783633546e-01
-6.201814248392428786e-01
-7.642864893506239321e-01
-1.232774192260718049e+00
2.003083621604791198e-02
8.476026704045664939e-01
2.259344508159940812e+00
2.749187594860940997e+00
2.413318572172908905e+00
2.559405409600510772e+00
2.327920769739054929e+00
2.533670864599657513e+00
1.887334398112112233e+00
2.602550561903031578e+00
2.499404078715372179e+00
2.653815084529915769e+00
2.218911245981634472e+00
2.595470344424692932e+00
2.817506883792431083e+00
2.795245039409480103e+00
2.581346309024625807e+00
2.908915796010903332e+00
2.566518408262612017e+00
2.228818799266491180e+00
2.462575486033556249e+00
1.997066489688851920e+00
2.104285266468059135e+00
2.981505627286189064e+00
2.643063900572935054e+00
2.105723292000643454e+00
2.527688622644364447e+00
2.634108242272479306e+00
2.102273392180629141e+00
8.241378737725102432e-01
1.846714290140609283e+00
2.580800068576241113e+00
3.006846608320173253e+00
2.622832579730019820e+00
1.910190606236627620e+00
2.110016529348358372e+00
2.153212465041111301e+00
2.510719118688508722e+00
1.989213529959419802e+00
1.811248848589732896e+00
-2.413807609051455749e+00
-2.544801177463690056e+00
-2.399810430258166871e+00
-1.352062816135173540e+00
9.963387136738093286e-01
9.236492167031258305e-01
7.766654732388494908e-01
2.909880013621736206e-01
6.446615162613872352e-01
5.387438206356313097e-01
3.509865508668785772e-01
5.301133765286126787e-01
-6.213246605739956019e-01
-2.608873957064433702e-01
7.996719791479913741e-01
1.132068667291528663e-01
6.490857522736174223e-01
6.644578088552625106e-01
6.175746212803484569e-01
4.035885180633237423e-01
1.137202774445077669e+00
3.191912032735870763e-01
7.206713640793241948e-01
1.644521348380721726e+00
2.852619860417513475e+00
2.843515225880471675e+00
2.006449904612338297e+00
2.377163085390174846e+00
2.658643674055414685e+00
2.427990138355719196e+00
2.626351496922935347e+00
2.489872751933874362e+00
2.220991354752706037e+00
2.088933171181492465e+00
1.319313695867183167e+00
-1.443443481934790495e-01
5.150107623187659689e-01
1.656629511416974829e-02
-3.532905417169173584e-02
4.104369890974306490e-01
4.921357320102575095e-01
1.948419508713462589e-01
1.027707406592665684e+00
1.050467884024520515e+00
1.021403587968077176e+00
7.066097214255275816e-01
8.998023691846008809e-01
-1.584239372538243762e+00
-6.993034138606403216e-01
-9.273392636152815172e-01
-4.248256778271952694e-01
-3.037704294333760213e+00
2.294038816721200025e+00
2.365420154909895878e+00
2.356077033077743188e+00
2.673724444966455227e+00
2.740109377292100135e+00
2.453406480827793779e+00
2.507169997585591226e+00
2.094357712127036919e+00
-3.629905806182331246e-02
5.826146690098419345e-01
1.176956463553293641e+00
8.977291893634570252e-01
1.039395959013490467e+00
3.509390247393035511e-01
9.489223311301357988e-01
2.370859994097282153e-01
5.785219991458856459e-01
7.340103208986042960e-01
8.670895682041217523e-01
3.605949985454376949e-01
8.605503325024992378e-01
7.447400394890719699e-01
8.659527239632440754e-01
8.594425677690825660e-02
8.625741387087165757e-01
5.080585765074883131e-01
1.296955532733262029e+00
4.758928477384144484e-01
3.527154602739485112e-01
1.407612132972531960e+00
7.135945326341384121e-01
5.653257667080325843e-01
6.661507325580591221e-01
5.036616385335803692e-01
1.078487648902726193e+00
8.158230552387230050e-01
1.152837404423387113e+00
5.830423776569531036e-01
7.832764395747018327e-01
4.376177784926045811e-01
-3.479334867263549347e-01
7.347558405418425087e-01
5.658803183852264551e-01
-7.331152080978488306e-02
6.559517903860140331e-01
5.239724160268696140e-01
1.119610978864952866e+00
4.256369683520441760e-01
-5.966086412272323392e-01
5.070701818414438122e-01
9.547874174023116556e-01
-7.551001771790222250e-02
8.396117615443460247e-01
1.435900477673752507e+00
1.321673692895321883e+00
2.342890046691227912e+00
2.483847074849954595e+00
2.098987980710410373e+00
2.044325891967519127e+00
2.098084468623556909e+00
2.808430713671058676e+00
-2.872933438891863034e+00
1.946362645433522109e+00
2.441588085050438561e+00
2.264667435493900260e+00
2.692325843790767337e+00
2.028789639770835596e+00
2.458813158836742119e+00
2.154824953616916172e+00
2.441804442015901078e+00
2.220072690829826723e+00
-2.516519176678916558e+00
3.089179602299131577e+00
-1.735918504620894254e+00
2.948625681198465465e+00
-2.676165070006381264e+00
2.421526400340952012e+00
2.657328389824993753e+00
1.614880226827491327e+00
2.095243940723092280e+00
2.654719206048852698e+00
-2.838637083300184383e+00
-2.676831397886406450e+00
3.093931103323002585e+00
2.870404664017917273e+00
2.811844894844386378e+00
2.382343398654203970e+00
2.674351676494112429e+00
2.995982029017771442e+00
2.205368235910500463e+00
2.203143769574238853e+00
2.539261498541514506e+00
2.473528368644573927e+00
2.501225918376061674e+00
2.829402272439914157e+00
2.320425320685287840e+00
2.467797869873612715e+00
2.561136453051503725e+00
2.400883604472046073e+00
3.016702034975086377e+00
2.717057439133386154e+00
2.412595770508613402e+00
2.057834710902237685e+00
2.239282133690541521e+00
2.722233347458420383e+00
2.249755624399626619e+00
-2.544826086695409550e+00
-1.912794271962377834e+00
2.024882009724767173e-01
7.932261441840228189e-01
4.031598809335020794e-01
7.041994917304962298e-01
7.138371662248182981e-01
4.077760084202923241e-01
7.300151437706482449e-01
6.005241302770219190e-03
1.992426735902647628e-01
-3.784321804808294387e-01
-1.158344772508009823e+00
-1.260278775961677644e-01
-4.661319234860463179e-01
4.117024574573577289e-01
4.863165638064776419e-01
1.121223498974442512e+00
-1.550039591082673363e-01
7.985397257020172557e-01
1.040925792109380410e+00
2.439998101749882853e+00
2.392673161449120567e+00
1.915176372902412272e+00
2.294034299239533503e+00
2.926404957678718333e+00
2.577956079113955301e+00
1.989763631763736162e+00
-2.931091294418561422e+00
2.628646559150551898e+00
2.472073530348660064e+00
-2.530023561444739943e+00
2.214785347500843216e+00
2.155612093197929902e+00
-2.633525579709223852e+00
-2.235269044764946589e+00
2.674750015934757474e+00
2.337637454134810167e+00
2.270348759119202864e+00
-2.652256733202557282e+00
-2.174986388430029116e+00
-2.349574829825045175e+00
-2.745376668029611000e+00
-2.369872727414359836e+00
-2.422684776294063536e+00
-2.663289992854226185e+00
-2.219268290103011410e+00
2.402832964212545441e+00
2.936898566427530000e+00
2.119017181832808738e+00
-2.268794103152234509e+00
-3.131272743288373572e+00
2.954188936654514208e+00
2.792738550147591869e+00
-3.076325214806421293e+00
2.757474945338195926e+00
2.615878989145286493e+00
2.537104076279915077e+00
-2.608016493616326592e+00
2.955447632421256188e+00
2.733517135277597099e+00
2.105376054896034077e+00
2.340588115116688517e+00
2.752161494688534216e+00
2.748644640688122198e+00
2.571056062037316181e+00
2.274092287178118177e+00
2.440868003951349063e+00
-2.776032074898794555e+00
-2.601642764043090139e+00
2.486479395962160943e+00
2.573530000981383292e+00
2.308665617274283655e+00
2.209051525863252596e+00
2.695215881349964260e+00
2.832384379370039618e+00
2.155878730634519069e+00
2.578509167152782222e+00
-2.392704113232200225e+00
-2.322039157118383379e+00
-3.073288461732507582e+00
-2.087919573601914269e+00
-2.672566930069173896e+00
2.332014295779202495e+00
2.012958324510368602e+00
2.913626807408372876e+00
2.714992788615183006e+00
2.699937135800596355e+00
2.071640278406352120e+00
2.981932413165081730e+00
2.746843020577184102e+00
2.320783018870933745e+00
2.994646599171013168e+00
3.043106810379419880e+00
-2.838754397408539631e+00
-2.375208074906157041e+00
-2.469918102004990512e+00
2.211056384306548050e+00
2.319330551083588876e+00
2.392353280785441960e+00
3.049214593708490462e+00
2.544623856263209305e+00
2.167757717637960546e+00
2.495992351257539710e+00
-2.607323955082156974e+00
2.153781112232130202e+00
2.411346196997726121e+00
2.026931432747631767e+00
2.263251457210271766e+00
2.516494663571645862e+00
2.756479529749533253e+00
2.348229096093283896e+00
-2.990870722906497026e+00
-2.018334799950789904e+00
-2.621077577158718253e+00
-2.151844490329268833e+00
-2.921870783036261354e+00
1.931622906064563550e+00
1.381533593430246842e+00
7.878867156789117754e-01
8.647786982825148572e-01
8.545895617103095310e-01
2.208788727096566262e+00
2.551404965866992391e+00
2.298889223019683570e+00
2.572419296305763048e+00
2.179342070546764543e+00
5.355003788816458110e-01
1.191938263402066323e+00
4.950021489327632862e-01
3.822783664838813045e-01
7.273565520444258414e-01
1.251445743358920559e+00
-2.050786729414809939e-01
1.062543771841308660e+00
7.028601065834476636e-01
7.952398457172777935e-01
4.246287222881424683e-01
2.454212080179394850e-01
3.816735967463416035e-01
6.953057755759246561e-01
8.384393467978693559e-01
-1.986779673895891218e-01
8.489756791046993989e-01
1.296728254721017937e+00
4.816091430706247456e-01
8.357099777091963055e-01
9.626881372186962826e-01
5.289071444636302965e-01
1.301694443700937454e+00
1.000714331318098838e+00
9.993981971025649447e-01
1.027646962502006378e+00
8.268348765544224488e-01
2.008096684638894125e+00
-2.534488397930712456e+00
2.071568705352652362e+00
2.626124928208366516e+00
2.346260896579634991e+00
2.310523511962741416e+00
9.962195398483385533e-01
1.131277560662040438e+00
1.768941658780581738e-01
-8.212017437163890987e-01
3.422519345101024402e-01
3.729078496302120627e-01
9.837203860556202883e-01
6.874261891099480160e-01
2.496028341469571366e-01
7.595575204220251786e-01
6.149255444248568070e-01
-5.356009197978447434e-01
-2.225452846941270157e-01
5.823862032456228466e-01
6.750165201294127115e-01
4.099246299897724155e-01
7.087606544122944108e-01
7.154513580586880916e-01
5.757750945928307162e-01
3.471524368715804276e-01
7.767053822526420737e-01
1.124863436252459659e+00
1.282368438004975131e+00
4.481865487280505822e-01
1.207808113851997600e+00
5.752516428966846229e-01
1.640778993325296531e+00
2.845955184101489621e-01
4.157927224533362609e-01
4.243694527739017563e-01
2.490569403457565834e+00
2.351379659142112999e+00
2.303702580477235529e+00
2.486485969697979304e+00
2.096410358210256231e+00
-3.029093471026218509e+00
2.441927319103483818e+00
2.037227684799639338e+00
2.662739120456371289e+00
2.129991728261027450e+00
2.430716118857165320e+00
2.172188660807728766e+00
3.008933715450266888e+00
2.132413987160249658e+00
2.336092569036650080e+00
2.323666153768553233e+00
3.113177800380458216e+00
-3.051565921015213956e+00
2.469968815571590426e+00
2.421448702599576563e+00
-2.852415266330905030e+00
2.881638515191869310e+00
3.118994406049308665e+00
2.692320315169964395e+00
2.960234442916761299e+00
2.511728538175263203e+00
2.826585361668811913e+00
2.537218989689954629e+00
2.249665761763777638e+00
2.103872360176955780e+00
2.372334774846677430e+00
2.283393099616036537e+00
2.169483377517773537e+00
-2.042841063895552534e+00
-2.225839239906640454e+00
3.121864723864974156e+00
3.077874360772653972e+00
2.801470541359678101e+00
2.351844184623893330e+00
3.052694390192766338e+00
2.786634844970778957e+00
2.175961806607837890e+00
-2.404133033832662747e+00
2.572300657687569103e+00
2.517582959704541157e+00
2.982411115783686117e+00
2.411176579950141008e+00
2.488858938962429601e+00
2.607694985320310188e+00
2.296946779553464157e+00
-2.995205539816887086e+00
2.399421893090842861e+00
2.437950294266344464e+00
-2.560929978562580533e+00
-2.344163516104418754e+00
-2.799590088756786166e+00
2.948519826651652131e+00
-2.933025005908751925e+00
-2.320402264250172042e+00
-2.360239415190686252e+00
2.358919344185270717e+00
2.269506726903554039e+00
2.319218990147856818e+00
2.426007237675625650e+00
2.628946178824460578e+00
3.097608609614446618e+00
-2.644258979155183820e+00
-7.935024306487284962e-01
-3.563945453772514593e-01
9.492340291087440762e-02
-5.650029423073493762e-02
-2.159634752575105565e-01
-1.155977794429163819e+00
6.354109255671817058e-01
7.986914041355872573e-01
8.309670701896074707e-01
4.242260609814229033e-01
8.504720492230626316e-01
7.640174150298840727e-01
9.871785397012262653e-01
9.516895226691574061e-01
5.236564629311294405e-01
5.249176164586245585e-01
6.668534094736915385e-01
-3.808644456051223925e-01
1.621862263698349016e-01
5.182153421366062496e-01
9.323854500135480006e-01
8.128212795506287724e-01
9.021858717989084120e-01
8.225776828914955763e-01
1.332309249082692659e+00
1.898388440872300631e-01
7.361864836744574925e-01
1.014704077414498723e-01
1.104613978686134868e+00
1.247862379539750322e+00
5.175997171576174338e-01
-2.091337831537813940e-01
7.443479811844775362e-01
9.492931513395470589e-01
9.735951158988381815e-01
2.833299254630093911e-01
7.968790349974673726e-01
5.118476854179985214e-01
5.826711806370146185e-01
8.532585605487717773e-02
9.659350302927081078e-01
1.212604334277594953e+00
2.026088861497803706e-01
-2.105284001370046898e-01
2.716389753127630979e-01
6.956596571184585631e-01
8.832875271679458962e-01
-4.627012772861801571e-01
1.030918345691926197e+00
6.565107598642381248e-01
7.286033051930272952e-01
8.290355493752648020e-01
-3.700205778430048498e-01
5.163525264631165790e-01
7.530695013034856000e-01
6.634020956476951447e-01
7.324400443297003349e-01
2.344994899845026792e-01
5.711414582310411076e-02
4.704027805870253931e-01
3.914134286588737965e-01
9.241110336427543759e-01
7.406923718343438878e-01
6.964962543357827718e-01
4.158038742353545869e-01
2.168110492500393838e-01
9.485103839958218819e-01
3.642703282338530801e-01
6.397943608616734057e-01
-3.133258734051420080e-01
4.486965447664004181e-01
7.800693496827395546e-01
1.026584689433548192e+00
8.627888153956554396e-01
6.626230373320085576e-01
7.121597430977463228e-01
8.622318595311931899e-01
-7.199711800054049426e-01
-5.839299859150374195e-01
-5.013296505633118016e-01
-1.008835875390754477e+00
-5.377528872286425621e-01
2.711055564866724499e-01
4.316461466212185294e-01
7.385293851672590781e-01
-3.059447117160917218e-01
7.238383816826751138e-01
1.111179978075722108e+00
-8.201050920992654092e-01
-6.571692245257055864e-01
-1.288593663972424364e-01
7.513887619779923144e-01
1.102112495779264290e+00
-4.040989022052377533e-01
4.608410683329704494e-01
8.020460172058937465e-01
7.298392589649717044e-01
7.617856622195483540e-01
6.969589895259937773e-01
5.545888233576644344e-02
2.477881872618262538e+00
2.355798000438142914e+00
2.515200370821557563e+00
2.332866642024205905e+00
2.538419384697360393e+00
-3.088087162420871223e+00
2.158101160898730608e+00
2.088646829258298254e+00
2.543102215785127740e+00
2.620786988573971854e+00
2.357223424197940176e+00
2.381939516980489113e+00
2.126729817786494170e+00
2.051501970895272642e+00
2.623417560680648908e+00
3.036528628658017759e+00
2.245343762703976953e+00
2.735501743435496458e+00
2.764462442149545396e+00
2.869930141920517652e+00
1.525020256897873461e+00
2.117587117116894735e+00
2.996083415666369820e+00
2.141415746237575579e+00
1.937270650242837844e+00
2.447775671747044690e+00
2.514285125578633817e+00
2.365712878625990889e+00
2.331117765841419498e+00
2.955680970655043538e+00
2.789104034486611372e+00
2.967150253253458825e+00
2.693688331559187965e+00
-2.412520742133795526e+00
-2.606129666713658199e+00
2.742731705595518932e+00
2.492152968557082016e+00
1.506503707806135184e+00
8.211690375438603917e-01
1.085978823633807044e+00
4.937192757388433884e-01
6.766905168573388307e-01
5.067993500548830799e-01
6.653437993367603553e-01
4.574740903217004440e-01
9.107223465081120128e-01
6.606643577781564636e-01
5.182013255295683241e-01
6.413100207478769077e-01
1.020973875770776695e+00
1.569654607683753089e-01
-6.092182675334767428e-01
4.954709295045250927e-02
6.445230241615351741e-01
4.626930231102184821e-01
-1.137072687090159739e+00
2.714656743360330360e+00
-3.014945924007878642e+00
2.748037803385386724e+00
-2.704695632119750393e+00
2.350452965249164805e+00
-2.767913911812922123e+00
2.721421043757537905e+00
2.427554535341754249e+00
2.729935626922277425e+00
1.845608312608895574e+00
1.934952419461418938e+00
2.309376881080492883e+00
2.198584694894115898e+00
2.520379292955178041e+00
9.860298007935480724e-01
9.209780638529270202e-01
1.974968890332086113e+00
7.943427813885018951e-01
8.311876748373159263e-01
4.601644582180576537e-02
7.200244906234224418e-01
1.192071699159138687e+00
4.612338103030175218e-01
7.107906746310206358e-01
1.573750566788533645e+00
9.670750362877431616e-01
4.406023247899432116e-01
-7.489841926168286368e-02
-2.361580015414100897e-01
-7.610574305229653724e-01
8.255306434621709766e-01
1.219426223687732236e+00
6.661216133635176062e-01
7.445323663536023151e-01
3.550122790762265668e-01
2.127688914289820876e-01
1.794582880452909146e+00
2.388079874138390402e+00
2.548689461846374460e+00
2.535474441503168030e+00
2.675389047035749979e+00
2.381058629948274774e+00
2.408157619390011828e+00
2.487724757052962588e+00
2.754739217242406113e+00
2.112950688960494094e+00
2.065168084915050883e+00
-2.607471119034240559e+00
2.153736634818642859e+00
1.967178577724875810e+00
1.362708916050145769e+00
7.655984689455122005e-01
4.174487465284825727e-01
-6.618863339840473925e-01
-1.585865253106933270e+00
-3.032412475489668413e+00
2.706955784185768987e+00
1.906810360470776899e+00
2.161714188888020249e+00
2.526170498669696673e+00
2.582545562481143531e+00
2.069892902182941086e+00
-2.722523811086673629e+00
-2.331377477679543730e+00
-2.278101973427307581e+00
-2.240165536925232015e+00
-2.580387523921551463e+00
3.060797613657047833e+00
-3.093076082824829598e+00
-2.689503233305791774e+00
-2.565849684202797576e+00
-2.333299070774343509e+00
2.113942607720671329e+00
2.299445130337399945e+00
2.509302288990025165e+00
2.256030506311329287e+00
2.721473386681428241e+00
2.196465473190567952e+00
2.379601366401666862e+00
1.994076129255106133e+00
2.588940177252237351e+00
2.368000875575140718e+00
2.877113298441417832e+00
2.687567642913911481e+00
2.113119098559113951e+00
-2.053633866450873313e+00
-2.522258334955956194e+00
-2.825881681554086367e+00
2.411270329354767483e+00
8.783391746142900081e-01
9.918616898133715276e-01
6.463070538218311789e-01
8.743725842667561254e-01
5.070596311199856432e-01
4.385862138936097443e-02
5.759311964818125684e-01
2.942423389379160703e-01
6.768555438759994436e-01
1.032792520125943136e+00
2.329664443494364467e-01
-3.985508760813889495e-01
5.647579271932469114e-01
9.739398454103505021e-01
7.425700197423196203e-01
9.209432436842939218e-01
3.168244988082318803e-01
7.162188594626453519e-02
-7.101652500512797284e-01
-2.257021714983826755e-01
-3.844323217922842595e-01
4.944487987093943993e-01
5.139444542115471082e-01
8.147117809944579570e-01
3.921337041686853153e-01
6.222283383934068546e-01
3.889686643086794349e-01
9.129044209163014179e-01
7.099044055132145425e-01
2.723932411263233488e-01
6.950924774175167853e-01
5.049240549004643253e-01
5.225403144156850477e-01
7.911533625415103632e-01
-2.711721743100690141e-01
5.017531205652867587e-01
4.975726567510623810e-01
8.035583778953145906e-01
8.396613624350287575e-01
9.191303280380660468e-01
2.860592443099240212e-01
7.608167959378472345e-01
1.042360025650675315e+00
4.054561161227703270e-01
4.756137863253653841e-01
3.721769914138816082e-01
6.268250104974105730e-01
1.074682035537841474e+00
2.203222777085199202e-01
2.272601247501456090e+00
-3.125724515004350668e+00
2.865730552761410976e+00
1.007243898125472992e+00
-4.913700813500974651e-01
-4.992204112377831016e-01
3.893584457526736431e-01
7.181726797334179180e-01
5.344477201253244880e-01
2.194299567020420172e-01
1.373226104339933640e+00
5.490622886630636135e-01
3.374617498570746665e-01
4.041733893327002503e-01
3.631814414389814560e-01
7.471302804850769030e-01
8.826045450820365623e-01
1.714709616607032194e-01
8.785635362003945126e-01
-3.282274383226490011e-01
5.387299587844959214e-01
1.241298320375630482e+00
2.459667674350486388e-01
3.777320155819229308e-01
-6.612723911630485896e-01
-8.918432680353014508e-01
-2.593986709229938903e+00
-2.383933622561520860e+00
-2.122549820913934848e+00
-2.371075507655596493e+00
2.325988716420505309e+00
2.242644679130806118e+00
-2.398662461765458609e+00
-3.065301310303926829e+00
3.081731022918575480e+00
3.030430374742999255e+00
1.857575922102005617e+00
2.670438734644221768e+00
2.119363261989553937e+00
2.543820655860035362e+00
2.556956897377640203e+00
2.021952870795892032e+00
2.347757332744289105e+00
2.614163053925498303e+00
2.064200578858188084e+00
2.322052776671706287e+00
2.369703815447542272e+00
1.926639829113309110e+00
2.427358681028982001e+00
2.676669873077949013e+00
2.602817075032306082e+00
2.511336814008005458e+00
2.709612555674858481e+00
2.173878656756492944e+00
2.894440569380075878e+00
2.531545112694756128e+00
2.405875161283121511e+00
3.126136923298802550e+00
2.261162120579701007e+00
2.765467222632450373e+00
2.674834065349789292e+00
2.443216388912398340e+00
2.105100910964682992e+00
2.264165096358705664e+00
2.328599438201654159e+00
2.939453814115365216e+00
-2.804539714393695427e+00
2.253216261550254895e+00
-2.111536281733516596e+00
2.638672809033886235e+00
2.113785692731600552e+00
-3.079081946895435351e+00
2.303912455716464525e+00
2.162916794932731257e+00
2.577193505921574701e+00
2.676512069198489385e+00
2.719384913479760080e+00
2.313708055067388081e+00
1.310954214720810862e+00
1.208005093596818291e+00
6.053087821322880036e-01
7.831252253023309740e-01
5.064744915994730257e-02
-1.168137919686713877e+00
-8.542676122154110319e-01
-2.886764930369671855e+00
-2.775626479956837311e+00
2.154857464822289792e+00
-3.112584757166336757e+00
2.338239676455977634e+00
2.683964599641819770e+00
2.662665033352352051e+00
2.219028679251759062e+00
2.842326324441774688e+00
2.407426359732478982e+00
7.465687804223004598e-01
1.064961297079120905e+00
7.461265867856207157e-01
-6.302766659216101353e-01
-7.710237025976501846e-01
2.808047995088837692e-02
4.950419672037548180e-01
7.536411840655551364e-01
7.943105188713145415e-01
2.443780588682316068e-01
2.279276923210435513e+00
2.643180344526552705e+00
2.925040037555365124e+00
2.570452589827730616e+00
2.426121021857069682e+00
2.001443658396135916e+00
-2.397283235583266947e+00
-2.244934962653166721e+00
2.972730589047003047e+00
-2.958587852653740580e+00
2.441913417974406642e+00
2.751975719243314078e+00
-3.101207761065044366e+00
-2.754167932337580726e+00
2.827080424438331629e+00
-3.059387167303178057e+00
-2.169869410554067901e+00
-2.880589682583559519e+00
2.196066096560194136e+00
2.843666635900677697e+00
2.634339321711775206e+00
2.739865806438258389e+00
2.216807473719783594e+00
1.976422026970312773e+00
2.812628851481073333e+00
2.372033621331824271e+00
2.766710174161501001e+00
2.183945573317664923e+00
2.799206355928027801e+00
1.360204619962744887e-01
9.675591145648660962e-01
-9.950075860660980709e-01
-7.320990954194719347e-01
6.563453050136137668e-01
9.374713878203485562e-01
8.009244325828807076e-01
1.656153423721617168e-01
6.762052767897424044e-01
-4.006566368624842611e-01
6.193051325824749931e-01
3.623175237354838152e-01
2.700225410887687194e-01
6.450352070758703649e-01
1.875211342312113283e+00
8.649290537581550975e-01
-4.508042374305860633e-01
4.197318746757572883e-01
5.722631649862514047e-01
5.591234429157326824e-01
4.834087397571653621e-01
-2.130363519642549941e-01
9.817139730164360645e-02
5.757168165967432305e-01
-7.826821909130506905e-01
-9.275726272199437128e-01
-4.596445979198957033e-01
6.233543544714739149e-01
9.940310044187101735e-01
7.644584591501027981e-01
-4.892260222121043445e-02
8.893971493488663782e-01
6.612644998536149066e-01
-5.507974606440606546e-01
3.776664342017759801e-01
1.252791447942773750e+00
7.655364753645134135e-01
2.337169091359406758e-01
2.281685646033363657e+00
2.115126242664821632e+00
2.466590707315873043e+00
2.559978851234536723e+00
1.162518879985803721e+00
3.210974242416887448e-01
9.902828086260783147e-01
8.815676373871672578e-01
5.643816712323672657e-01
2.937075480388283144e-01
7.153138956306959173e-01
5.726365624979369295e-01
6.342607300814707694e-01
9.085725938696214143e-01
5.745786872897331587e-01
1.019178436082383454e+00
7.975091815742141321e-01
2.317271720318174300e+00
2.661699170349446586e+00
1.046073329020018816e+00
9.481764311921531130e-01
3.271542461721606287e-02
-1.248148241934203401e-01
-2.895466010023390324e-01
6.107903232997988763e-01
4.138243359076896333e-01
4.090798762857603132e-01
7.331619168966081457e-01
2.169395842689073817e+00
2.737019863252546426e+00
2.502371350484391854e+00
3.053506654978661139e+00
2.091441085732592686e+00
7.473566582815743820e-01
5.792463024388649906e-01
7.228962752326404395e-01
6.012069750519113409e-01
5.056101474392479256e-01
2.498850756028149489e-01
3.581711240272043573e-01
1.172780217727540153e+00
9.995119813293834587e-01
5.850691197609063365e-02
4.523080932107966801e-01
6.683010865158934832e-01
2.293962824779227638e-01
1.711223216263534352e-01
-6.320573450866312504e-01
-9.107148864918706010e-01
-4.971417209511906909e-01
-1.337879889117086218e+00
-8.170155005497498069e-01
-5.963339540600117727e-01
-3.594223445671034245e-01
-1.023081083989848983e+00
-1.451677795583002362e-01
2.952477572848939413e-01
-1.688556601160097481e-01
-6.870553934957334130e-01
-9.177830847972953121e-01
7.472830698693526674e-01
5.748990535118689849e-01
1.034466489775197173e+00
-4.971055068241425623e-01
1.328937467228508973e-01
9.171089265975141958e-01
2.335082810409483123e-01
1.082679779521085628e+00
-2.757453158686494543e+00
-2.572151629573611320e+00
-2.471237581055039989e+00
-3.097357212092774148e+00
-2.846177178545227449e+00
-3.128305092558919309e+00
-2.349183587290274655e+00
-2.540738796071394745e+00
-2.761784598276196157e+00
2.949724087565859243e+00
-2.556416662255715622e+00
-2.390160365273961141e+00
2.408965990973479965e+00
2.584870234250976839e+00
1.629482429866291993e+00
2.110098440531150032e+00
2.185702435106600117e+00
2.335522832862549691e+00
2.612986016635061137e+00
2.578692183568094709e+00
2.500361296622171992e+00
2.474040026375843748e+00
2.194110254365744694e+00
2.747947888084351753e+00
2.209477317326961732e+00
2.423939231276079909e+00
2.968502042151027975e+00
2.339746734894214253e+00
2.381793241910628911e+00
3.007525816068088442e+00
2.606793450399825129e+00
2.497395461034742858e+00
2.576004001587992587e+00
2.480158333594927100e+00
2.424444144933184386e+00
2.754338595932320111e+00
2.876018932270826500e+00
-2.954146779046414650e+00
2.233703996094584809e+00
2.555878856276824429e+00
2.643646897970945986e+00
2.572197354535849190e+00
2.518809674455026570e+00
2.677617838266150851e+00
2.228009524475146552e+00
2.875039870071022907e+00
-2.154130934753020199e+00
-2.280160095207021786e+00
2.432044265074664757e+00
2.421937602243726673e+00
2.984568490819059949e+00
2.320874353630015374e+00
2.392033912606625012e+00
2.482262834873354862e+00
2.585735802827654251e+00
2.625025640230022717e+00
2.710220290430111145e+00
2.073188217524154719e+00
1.983062792559276533e+00
2.413895079102513552e+00
2.718519858509869103e+00
2.051016712789179852e+00
2.467578433844832553e+00
2.128307709860783881e+00
2.204955083503521429e+00
2.434160310229797730e+00
2.701976743155614979e+00
1.904374528097622976e+00
2.224368515712897842e+00
2.893666927766913144e+00
2.734525466630538304e+00
2.426101174936964977e+00
2.471058305645507769e+00
-2.923115036384167809e+00
2.781732581315337960e+00
-2.634928217668718098e+00
2.502277686261186407e+00
2.195121902526196322e+00
2.854201945976089227e+00
2.490167520767926579e+00
2.535031108909317599e+00
2.813311572226667945e+00
2.781348010390936487e+00
7.663637732785192336e-01
8.263246703341887711e-01
1.208547163988966222e+00
1.487332507364609979e+00
1.026063801691048161e+00
5.986238893718937026e-01
1.033365546039064942e+00
6.142731535224765782e-01
4.924580324939675235e-01
5.956799461635245985e-01
2.564136576127810319e+00
2.413645830597931585e+00
-3.106833070250271334e+00
-3.127295437747221296e+00
2.146074227014924674e+00
2.176705876714982502e+00
2.482287444678738630e+00
2.763124143864049032e+00
2.935496016394949059e+00
2.294840325799872183e+00
2.710773353283037146e+00
2.298389189738496707e+00
2.055612956448061190e+00
2.342913780141891333e+00
2.211038371477689335e+00
1.071220103982509997e+00
2.083325365685547048e+00
2.547383940271175984e+00
2.394957279213776324e+00
2.083168053304503609e+00
-2.580246869228684847e+00
-2.469763322243883508e+00
2.216008666962397289e+00
2.468822880775413342e+00
2.151955611925925105e+00
2.606355732401036462e+00
2.507461011734120504e+00
1.856817985435631035e+00
2.106454752691140353e+00
2.849350745898767467e+00
2.708453456348348887e+00
2.536485745047803775e+00
-3.083860305301853622e+00
3.070896302113984344e+00
2.021947743582376944e+00
2.104149262701952683e+00
3.040064137155146451e+00
-2.552595922646970994e+00
2.671741452817631313e+00
-2.703515161728015759e+00
2.060620273323848117e+00
2.223787387435376850e+00
1.904686464314770289e+00
2.263150906981886035e+00
2.439322120785060832e+00
2.335779479829191985e+00
2.328987319387862964e+00
1.676630983154113741e+00
2.242766410356920037e+00
-2.935378218348137391e+00
2.192164268145567529e+00
2.390310639096503653e+00
2.301019151040057498e+00
1.174397894235515993e+00
7.028656264860050351e-01
7.259555082672080051e-01
1.630505964784426665e-01
1.058609620323391676e+00
6.233827466112175086e-01
8.666925442992419182e-01
9.324202127765011117e-01
4.734457817744029962e-01
-1.069784073459462803e+00
-5.629213793166847335e-01
5.711801735894689314e-01
2.403657563573063094e-01
-7.441716664219591437e-02
-8.347654454175973404e-01
-2.977723094356900524e-01
9.237192474229114492e-01
7.012886593464378038e-01
5.599650395910750200e-01
5.176085117463581353e-01
1.576909916955045343e+00
1.043450899728740833e+00
5.039380650479611257e-01
3.872536246282113903e-01
6.202115676389795551e-01
1.183556083923325231e+00
1.827100248445240105e+00
2.594144268953997745e+00
2.452602270592581402e+00
2.168167699911096591e+00
2.503476948001531088e+00
2.343234051522944394e+00
2.229032439883256167e+00
2.161398447396066125e+00
-2.707925736959002183e+00
-3.036656138530133386e+00
-2.644928873379569723e+00
2.446195823181261275e+00
2.637189016613140868e+00
2.471835915614649881e+00
2.335261547734959198e+00
2.997697163168804746e+00
2.387290113319504581e+00
2.270696296778413448e+00
2.303922089325141531e+00
-3.038857433839539990e+00
1.859883980978632945e+00
2.871229964360643816e+00
2.440233378744830262e+00
2.538280640443633107e+00
2.702962839112315052e+00
2.770965557020637071e+00
2.833722536311467977e+00
2.188651005328589250e+00
2.512807769515121858e+00
2.719665791631766805e+00
2.591558371141170269e+00
2.539079604369662402e+00
2.019846394048970151e+00
2.966949251669591447e+00
2.882162044546112689e+00
2.411832663308643099e+00
2.360265572103509069e+00
2.526027419183759282e+00
2.440074479359344295e+00
2.204162818492594766e+00
2.509703705981164656e+00
3.034137364103057788e+00
-2.558722727100096517e+00
-2.590115295671614692e+00
2.498157600291698976e+00
1.819862341538642792e+00
2.378827484629052691e+00
2.116521303867267001e+00
1.982356774513578390e+00
2.316556025687397380e+00
2.309501358908749413e+00
2.105543584705179327e+00
2.595095454719784644e+00
-2.026727706934957407e+00
-2.411032763877499097e+00
-2.341828379822509465e+00
2.954217500559910725e+00
2.697839599222114693e+00
2.408356571915838185e+00
2.306705306910432185e+00
2.696671769401275842e+00
2.246390034460473473e+00
1.094984961213705921e+00
9.346558598519828509e-01
8.838622132364797324e-01
5.599052352566812329e-01
8.931830599526144887e-01
1.027981653458565070e+00
-8.195861060112394902e-01
1.434049876031866511e+00
4.692073672008527652e-01
-7.220985926521183984e-02
-1.107753981160547907e+00
3.396435026899562448e-01
6.322579252224482804e-01
2.564916881235875922e-03
-1.262712720852493704e-02
3.412898101348909585e-01
4.031698832080306549e-01
1.045169291689722391e+00
6.067904334588177795e-01
2.800375606200809386e+00
2.234973807263801682e+00
2.427328270723734249e+00
-2.696350156700485279e+00
2.326719579628266033e+00
-3.126197651284995160e+00
-2.341410871303251096e+00
-2.556261604046798475e+00
1.915975503965376081e+00
2.250937913339787766e+00
2.763620081889472058e+00
2.976998884072687535e+00
-2.578889389697970991e+00
-2.665681507475515133e+00
2.991394747474644955e+00
2.948879206289210853e+00
2.307734854947508740e+00
2.178061580760103588e+00
2.972800745011934698e+00
2.992744491279019758e+00
-1.795889293948205179e+00
-2.753281847905086011e+00
2.345774893970065555e+00
3.032873783346011098e+00
2.920282277344750543e+00
2.427812027038958487e+00
1.424738944260926177e+00
1.605123958050653554e+00
-4.484033538344669306e-02
4.604208749901304021e-01
7.738653194106093203e-01
9.727422462733290587e-01
1.334249279762437679e+00
8.950007527131791374e-01
3.905725585060451643e-01
1.308438033298665815e+00
1.026032715734120027e+00
7.491216434225840270e-01
-7.613195886467917228e-01
6.711743057229178078e-01
7.010559801581411898e-01
5.064216419453385631e-01
9.489751745538403949e-01
8.502987145209810471e-01
6.981678397248674006e-01
-3.763712218914883612e-01
-6.884247441368338549e-01
1.305753216829724561e+00
4.811766118697606842e-01
2.308819811811064771e-01
5.754406227152163433e-01
-3.545283841801958463e-02
-7.950665385673747476e-01
9.134996287589871589e-01
2.771989139803643920e-01
5.703195565889352947e-01
5.243630757088401095e-01
1.026774451722590520e+00
9.177875753156166105e-01
7.461772592831331652e-01
2.269054482765524017e-01
2.845735063289503985e-01
9.794530064060729124e-01
4.728127353350233819e-01
9.098143660788405862e-01
-4.096620231465773060e-02
4.014090935957544404e-01
7.323700518101019519e-01
5.700404410986384951e-01
3.085330332492716154e-01
6.907738789142733316e-01
5.716179467836198791e-01
-2.391878903438458548e-01
-1.057582186473214225e+00
-6.058678844139820940e-01
7.900793898006006621e-01
5.450194106752520584e-01
1.744039901703189621e-01
1.347702530797173226e-01
9.670959563330669972e-01
2.403718997800714963e+00
2.203249056722299759e+00
2.441836238999780306e+00
2.320165888030004897e+00
-2.907096614699710369e+00
1.938800143146534705e+00
1.066727304924140363e+00
9.663921319282340328e-01
9.397091954594527508e-01
8.069034203746940914e-01
7.603860957985614233e-01
4.769769178085370709e-01
5.945870897492692153e-01
4.435315172165990583e-01
7.190450250014878142e-01
9.837945609229727939e-01
4.242631961083099257e-01
4.015400228932080040e-01
-4.877953087685981542e-02
2.099521512315257188e-01
8.260072924418206952e-01
5.416462813555000810e-01
7.782167462872665586e-01
9.630773023635065266e-01
5.573403113066415226e-01
1.927287490683122106e+00
2.734549277762083896e+00
2.172772870223340647e+00
2.368551847249847242e+00
2.394070199159331835e+00
3.052708399429405972e+00
2.503890971015848343e+00
1.992871086173438000e+00
2.204576390570168076e+00
2.839875528952051198e+00
2.115809249314402507e+00
2.634353392111561831e+00
2.587463919394600076e+00
2.555274641423777471e+00
2.379898314214138555e+00
2.080164595280217910e+00
2.412398573542932745e+00
2.206662267059585680e+00
2.609974364458599538e+00
2.403704282138948933e+00
2.624886509331943785e+00
2.862682691736787355e+00
3.071570581794336174e+00
2.657241961553487020e+00
2.076535842841662927e+00
1.935681373125675453e+00
1.836686141965339303e+00
7.490909237940486243e-01
7.232977763955354966e-01
8.044844739594443350e-01
2.781841286675612035e-01
1.173669922029481727e+00
8.695319922239387322e-01
4.813807795027281733e-01
1.254054667041689886e+00
5.099084635365315199e-01
6.216392581246633631e-01
8.708885420183783144e-03
1.860976034407522128e-01
5.767252602823002006e-01
-8.719857084854684137e-01
-8.418173398100688987e-01
9.929916903135078687e-01
8.768171182970215805e-01
9.272731163282740274e-01
1.551623101739961763e+00
1.881837634618175326e+00
2.853984091883148277e+00
2.162805413161865253e+00
2.304515947158367606e+00
2.584817794128192681e+00
2.471472978130324627e+00
-2.858396672534799343e+00
2.273812344867101043e+00
2.801591672795289423e+00
2.423309993581614030e+00
-2.562294514667537104e+00
-2.636314019155136634e+00
-2.469179295602907054e+00
-5.314239793056864114e-01
9.343161093919852833e-01
5.641753624267045186e-01
4.321530002698009687e-01
9.102159721387316216e-01
1.052932760688134461e+00
3.224984773875305688e-01
8.446517462727169967e-01
1.121550590897382182e+00
2.251452259118094101e+00
2.941533634824076593e+00
-2.598767699391610897e+00
-2.193063626861839754e+00
-2.540675991837685999e+00
-2.805643209659148152e+00
1.732033775505190665e+00
2.659019578437391562e+00
3.014239736581187046e+00
2.414715335883201419e+00
-2.927664211945759654e+00
-2.400864281658778410e+00
-2.758531948453126770e+00
-2.225753263396478498e+00
-2.804724019907014920e+00
-1.986239301527012335e+00
-2.243522475833816365e+00
-2.343065820414805156e+00
2.370944298104720183e+00
2.677268726608703187e+00
2.559830634598668997e+00
2.474258487003776708e+00
2.280593276596513785e+00
-2.612582971208182059e+00
-2.594828108703829184e+00
-2.968582423676288329e+00
1.878818697283682670e+00
2.179836360737701373e+00
3.015171786307149215e+00
2.455661558931202304e+00
-2.552668603033091621e+00
-2.600183656395197662e+00
-2.574762358997664702e+00
-1.804435097381538178e+00
-2.063218552588047316e+00
-8.543908202326209178e-01
-2.067368823913467990e-01
1.035682392947188557e+00
4.200002996032395908e-01
8.653540103567898267e-01
8.841208959354952546e-01
7.369447343689968788e-01
6.757302778357223705e-01
2.998121434938779140e-01
1.975090945768298578e-01
4.168518993768168812e-01
7.915985505940130729e-01
8.103309461545160630e-01
2.522227948810448428e+00
2.412288337689281637e+00
1.974573394431301754e+00
2.389167094814479420e+00
2.928240831488837514e+00
-2.720510373786004354e+00
-2.729833088804134889e+00
-2.989922194172013548e+00
2.485623106175529173e+00
2.188725317747043597e+00
2.309300823248774392e+00
2.249414829645438818e+00
2.024090647538820953e+00
2.800206428199184305e+00
1.813124122720906062e+00
2.315515032568199683e+00
5.085592730918511162e-01
2.295262819402844823e+00
2.102070049078170300e+00
3.128101755687706653e+00
2.373059945408437343e+00
2.350783645223962104e+00
2.649650076395244191e+00
2.143270309314814881e+00
1.489913405842796967e+00
1.893167579015861524e+00
2.003210655332698042e+00
6.574502821103009875e-01
9.968977266452735408e-01
2.892201343822228266e-01
7.383130820719223386e-02
1.855505034230209571e-01
4.483843487702709463e-01
5.692635686822390406e-01
9.197224937195830341e-01
-7.214437366184518474e-01
-2.618626589696099405e+00
-2.263662340388560512e+00
3.017704433188391544e+00
2.744769228371550795e+00
2.591925024516248399e+00
-2.434448286143844342e+00
2.719347701680678853e+00
2.965622801730260605e+00
2.694252606887562518e+00
2.363662694511047491e+00
-3.082839613587298189e+00
-2.030120201731564489e+00
-8.613975257376950134e-01
-4.025775195587110167e-01
-9.223190853606236805e-01
-4.002308460625024211e-01
2.355062177257137845e-01
3.960417245999549585e-01
6.518014989913288870e-01
5.800204772761479166e-01
5.408621352271770349e-02
4.915424354820388184e-03
6.472937442603190483e-01
9.000581596518764105e-01
9.650467697954530355e-02
3.623151882323752959e-01
-5.271965503533889708e-01
1.391829580050689019e+00
2.457266690151136856e+00
2.318888712766384863e+00
4.015813688608757537e-01
7.409697576737938052e-01
5.866461285123096836e-01
6.179778217649651850e-01
-8.962634433981148466e-03
7.986979666801312661e-01
2.693356073264029371e-01
5.430598469725190780e-01
1.125891971046504292e+00
8.406816273878647827e-01
5.456999835316079794e-01
9.665820806312387381e-01
7.594585318568682908e-01
-3.363972227023612205e-01
3.444853760540508847e-01
8.130764300048530790e-01
6.818774038866829423e-01
7.811790747672632262e-01
1.630232427108904147e-01
6.711766989213671097e-01
1.289794541013866258e+00
8.351407068164653502e-01
7.505728445621209222e-01
6.340799820029097145e-01
7.199397429561473771e-01
1.075810019177825927e+00
6.462031321049908072e-01
4.513601760347181746e-01
1.542596183810610311e-01
2.265807117993282327e-01
7.469898828424440529e-01
4.085355806929512612e-01
-3.768275250083531480e-01
-8.074855048505984179e-02
7.130660646706622474e-01
3.353468053581075692e-01
2.610132491036545876e-01
-2.520558423873823228e-01
-1.136913894598244774e-02
-1.072731373016559520e+00
-8.756999722929931229e-02
-9.076870005012197540e-01
-6.437347323026348933e-01
2.182446718156922927e-01
-1.068184488981782199e+00
-4.787875929966587535e-02
1.065507502226453962e+00
6.895879196914331821e-01
4.325115564974902904e-01
4.584496614869345010e-01
5.678379363185214190e-01
8.023929733178805090e-01
8.397340869800425933e-01
6.610072613814610420e-01
2.869584982989893951e-01
1.723919524641920775e+00
2.440379644960217309e+00
2.448021192958932613e+00
2.586736342156576107e+00
2.561085094271698726e+00
2.327445728660169078e+00
2.805857156725670265e+00
1.876775259511551663e+00
1.824397306115491890e+00
2.306030104414924509e+00
2.639364535250349864e+00
2.037521958174618231e+00
2.077859530632516716e+00
2.104710307938664204e+00
2.827447531556044336e+00
1.373631391355483622e+00
3.927628870644204184e-01
7.929228057600443691e-01
1.067817201571851449e+00
7.570619469067066398e-02
9.502680983987047414e-01
7.899165288350793457e-01
6.870396685130529812e-01
6.204159755445374236e-01
3.118920954742727680e-01
8.589814639586422773e-01
3.941742975936695093e-01
3.165804951056991889e-01
7.617553495320033008e-01
7.612873121773624518e-01
2.389508761285465521e+00
-3.031892035453879863e+00
2.200976418270025103e+00
2.207812195999793392e+00
3.095806912269790434e+00
2.205930123511222973e+00
2.540643105723194850e+00
2.475746508089777365e+00
2.252267387711584412e+00
2.081974905660421094e+00
2.660122717509341150e+00
2.323730714408553943e+00
2.387147138125286894e+00
2.790325919317377501e+00
2.917408557328819096e+00
2.319704497934343301e+00
2.822669090274363857e+00
2.032199071158756531e+00
-2.068781302753742057e+00
2.402214926340908718e+00
2.705394251284310325e+00
2.660221377049006186e+00
2.487450325997382361e+00
2.704718298320612835e+00
2.471141052519163939e+00
1.883833087408790741e+00
2.050244358742754791e+00
2.382499230692934233e+00
1.968513949101792893e+00
2.838693608841659000e+00
-3.097577973569951570e+00
-1.926099506213651447e+00
-2.633128047129444038e+00
-1.743325562616608648e+00
2.603674035045396629e+00
3.038571030208417678e+00
2.360370717231583981e+00
2.636907755488380634e+00
2.284499717957248599e+00
2.387410115218103979e+00
2.179404039520447256e+00
3.931091876964008525e-01
3.229769790305652699e-01
5.242461698751827992e-01
2.556910587663256962e+00
2.716646845559367307e+00
1.948898071261684573e+00
2.167991548627212772e+00
7.009458952501025353e-01
9.431174728574028832e-01
1.173514176662400654e+00
8.373771671241281300e-01
4.332925010182108183e-01
3.814997237359147308e-01
6.566952607362971372e-01
-8.093266037490207676e-01
4.804110100770736524e-02
2.234259193961154022e+00
2.526436970592428555e+00
1.956284583762055274e+00
2.336028746884995400e+00
2.194737665375941393e+00
2.399185582099852443e+00
1.343987512685035357e-01
1.051065861679455926e+00
1.178400098469113422e-01
9.782904834003844918e-01
6.689002864560323891e-01
6.469624403685779734e-01
6.260299369315329709e-01
5.916042421111853411e-01
4.404963310599135928e-01
9.624980632445361284e-01
5.345897735687932251e-01
9.140993464973413696e-01
5.593426935542609169e-01
6.753683267266945567e-01
8.613595804881382101e-01
1.044650678534005284e+00
8.961477817398660894e-01
-3.053464163163181477e-01
-5.628696723233296562e-02
6.101422777953980914e-01
6.032960400906602905e-01
3.490074162772504596e-01
1.117360361915333833e+00
1.070785571110312473e+00
-3.761538235854892664e-01
5.397494145631608342e-01
-3.911656923371598094e-01
5.937247594391219518e-01
9.505058571413443902e-01
5.323894066551078108e-01
9.569586512116761146e-01
6.741325493084424636e-01
7.257760296479466300e-01
3.428513147260326115e-03
4.849362728270133482e-01
8.813614729147690730e-01
7.596875747859154204e-01
8.812493876185938380e-01
1.683729591136827963e+00
1.035706043728365167e+00
8.767672499212595394e-01
7.700019850452586301e-01
2.782267296702496395e-01
6.994250620397622908e-01
3.041062363474635322e-01
9.966048127804508772e-01
1.145802824017167820e+00
-7.490292179671312334e-02
-7.060019779347860291e-01
-1.859495555074277773e+00
2.962625642541100390e+00
-2.914339295704407196e+00
2.618454804561816118e+00
1.805197118630176734e+00
2.617658741936840894e+00
2.205337264466966651e+00
2.033795829011057155e+00
2.575059761165004346e+00
2.365669968578448135e+00
2.254106916306623631e+00
2.748350388786760856e+00
2.381556122653961438e+00
-2.762373916546843944e+00
3.050908109559168579e+00
2.205333432677681671e+00
-2.400462620648529555e+00
-2.838944319752704004e+00
2.268125524691208206e+00
2.127625392578229135e+00
2.237108069527372400e+00
2.343845917200484408e+00
3.101004918521054865e+00
2.289045999585543889e+00
2.649342942740382068e+00
2.444895218118773972e+00
9.692247502131614567e-01
7.126782544117578055e-01
4.314123027997390225e-01
4.792145016587362472e-01
1.146813471045949218e+00
8.262157376113264950e-01
6.005560536645151437e-01
1.153646364808424529e+00
2.385319209607256880e-02
5.239238455500883074e-01
6.333199216577989343e-01
7.575363332896821733e-01
2.495249921697877848e+00
2.553544450558604684e+00
-2.552654683017717474e+00
-2.718113451035128136e+00
2.189700462851135399e+00
2.189014548819515849e+00
2.457135482317981623e+00
2.827388686536304707e+00
2.740238230157608701e+00
2.852296496014651961e+00
2.200695178286739662e+00
2.575511131177304680e+00
2.493956324970311389e+00
-2.343122108237516432e+00
2.531946160723688166e+00
2.258914369916488862e+00
2.256310277239061968e+00
2.368952754660728299e+00
3.130676027176706011e+00
2.556566454602726246e+00
2.272553277294313556e+00
2.021409812306549814e+00
1.939902161731191566e+00
2.920828730043564914e+00
4.705154858284036901e-01
1.840053308275315866e-02
4.656390633461368611e-01
-2.118919440326907100e-01
8.953612253575383706e-01
-4.002037743007331172e-01
8.361781982241589528e-01
1.100956025903618185e+00
9.309165778702934713e-01
3.909366396018625900e-01
-5.387497119564711445e-01
4.092186946448072016e-01
1.180909559033632261e+00
2.348322212333058268e+00
1.817313141816303546e+00
2.438870598372058662e+00
2.342116104414210476e+00
2.334257849046398992e+00
2.450439990881089880e+00
2.349940191814269941e+00
1.990924215272043662e+00
2.206965314342100637e+00
8.106076196066057671e-01
7.837708560642218103e-01
6.380488126802761339e-01
1.311238429884222567e+00
6.388326554505291410e-01
5.774742166649677877e-01
8.428074705070049966e-01
8.192299879538886831e-01
8.192987180362806265e-01
-9.186171156565850482e-02
5.705075362480915846e-01
6.364435481732410027e-01
1.605908310819867957e+00
1.758751681043992043e+00
-2.417626323123819088e+00
-3.072923153543405839e+00
2.132158380408809339e+00
2.856919951624639076e+00
2.603103352989458941e+00
2.868167179106387632e+00
2.511622140919745227e+00
2.352832247878971828e+00
2.224635502643935947e+00
2.341490020986503051e+00
2.435318278179637641e+00
2.702491493478487605e+00
-2.619846464785745344e+00
2.728727597952703032e+00
2.759405853339873094e+00
2.603426069377325458e+00
2.030463504714548950e+00
-2.258000145489473809e+00
2.974051755798230001e+00
-2.536425217707356516e+00
-2.214288529435351371e+00
2.033392537307256998e+00
2.753265101714041929e+00
1.906090816047210756e+00
3.022487099076874628e+00
2.463801026963774010e+00
2.528193450041788637e+00
2.311508981730634904e+00
2.446467466736287122e+00
2.604897039974464867e+00
2.320529838176262238e+00
2.329075836732988236e+00
2.615059894265356899e+00
2.325854078116535106e+00
2.716249834184063960e+00
2.286347367492019167e+00
2.205604301515278642e+00
2.357521794368463208e+00
2.428501856714348595e+00
2.226331284265345101e+00
2.274058690931140436e+00
-2.167062130166701017e+00
-2.570398720180459673e+00
2.833294051663381108e+00
3.099387505336301363e+00
-3.036776108486255232e+00
2.788064703849796544e+00
-2.921097050605210299e+00
2.533480553583711714e+00
2.805874729296591319e+00
1.940086426341719683e+00
2.265961211811513110e+00
-2.403993131111374915e+00
2.387659769216865957e+00
1.953257432322252463e+00
2.643306412340974632e+00
2.554847661632988487e+00
2.597983017361766400e+00
1.873088543513728998e+00
2.366010473607717657e+00
1.973781324774183554e+00
2.196818710711875955e+00
2.787562562674788413e+00
2.846343241357772946e+00
-2.990154873090920873e+00
-2.402240871950106715e+00
-2.625702568178277740e+00
3.110358750118453752e+00
2.527329495689984995e+00
2.409387217139168147e+00
1.721111554306283598e+00
3.059965473140545456e+00
2.777219817358041354e+00
2.086131021249617135e+00
9.377582909397857991e-01
8.766331659523962649e-01
2.746032918263493494e-01
2.530075644996355178e-01
-2.101304714806796481e-01
-4.461149798423578172e-01
4.415890974244235934e-01
1.105541380285371966e+00
3.996236771879689842e-01
3.118605921548711635e-01
2.222128109807384455e-01
7.745643261545073210e-01
2.066144881124705457e-01
7.750353239810715555e-01
1.006091696508361499e+00
8.932097611858611508e-01
8.728223469913841681e-01
2.309377806237572495e-01
-3.622122992441710321e-01
7.839559484187966776e-01
7.276403981610066740e-01
-6.885987596727140003e-01
1.538675307742696674e+00
6.407345203899290909e-02
1.657829957669446852e+00
2.864657472540001137e+00
2.599903724863825705e+00
2.826710306360876501e+00
2.380327098522959872e+00
2.504278232109884872e+00
2.734787578722904122e+00
2.286362530997726683e+00
2.340829174609769581e+00
2.616731054114143973e+00
2.616837999816602700e+00
2.130100125274565936e+00
2.403645897221586836e+00
2.878715104598543295e+00
2.731777122694023952e+00
2.889544652651726775e+00
2.573815612505961248e+00
2.608622005097324337e+00
2.484700041177505092e+00
2.344479044408471324e+00
2.426780591810886900e+00
2.595213237521737160e+00
2.553173055359887922e+00
2.479284958118118887e+00
2.787012530877383210e+00
2.944464840232298819e+00
2.640575773424165273e+00
-2.626739360330944351e+00
-2.720610302191499574e+00
-2.535283271798135285e+00
-2.918096595504879431e+00
2.257595101711366237e+00
-2.480410189495777740e+00
-3.064666016101822432e+00
2.689379253648080503e+00
2.270523002371683585e+00
2.439635524920236165e+00
2.414404206754648730e+00
2.384338570548447667e+00
2.892619977273398479e+00
2.800777766460014195e+00
-2.676166266471057043e+00
2.318776202576830592e+00
2.445108268156687803e+00
2.544646152387397997e+00
2.764286726061423671e+00
2.259356721288071412e+00
2.192399091435372593e+00
1.889476079904633066e+00
2.587295211834964359e+00
-2.964276201989624493e+00
2.698839649492588588e+00
2.163655275606129358e+00
2.099417946594190898e+00
2.688081838003227642e+00
2.784741227147163212e+00
-2.782145354467066234e+00
2.350596814055313732e+00
2.598151458222232701e+00
2.722861491372865483e+00
2.369674671160788115e+00
2.354021148560981214e+00
-2.851750942394340793e+00
2.571219596836063381e+00
2.106079441303902122e+00
2.675380224172465127e+00
2.497941729996123961e+00
2.544593567651665111e+00
2.811519973720819632e+00
2.540061001113789185e+00
-2.726558732089373827e+00
-2.545084525433948031e+00
2.624718310778018537e+00
2.994659310236772232e+00
2.179041286832713364e+00
2.696128504313015650e+00
-2.837925712863182515e+00
2.467318275842741659e+00
2.453401002968599531e+00
2.459893270516733566e+00
2.878758401221544805e+00
2.256789854718980415e+00
2.431917608220990790e+00
2.058499848290134882e+00
2.431409546571032365e+00
-2.940746946166493014e+00
2.504829031102705272e+00
2.389665830165137006e+00
2.496674534734691697e+00
2.589735497645805573e+00
2.306888784736955689e+00
2.118546514405689418e+00
2.155314717706176886e+00
-2.588366424134278976e+00
-2.163665292251821359e+00
-1.867124219097571203e+00
-2.355090812373717313e+00
3.094016181839763568e+00
2.463328068019352113e+00
2.380414646325310191e+00
2.261866564933079360e+00
2.386569838015719203e+00
2.626046120969084186e+00
1.985461385541117618e+00
-3.136822901990295787e+00
3.104116000521880192e+00
2.755648691920681959e+00
1.146794349628301957e+00
1.161164273204558395e+00
4.274073652495884446e-01
3.669740358471907382e-01
8.980932295783128350e-01
9.758730262998547289e-01
9.690184040933010889e-01
5.233646144802847067e-01
3.215209862332330526e-01
-4.659022761009961044e-01
-3.242901411230087461e-01
7.264536038873861123e-01
5.086833089101532313e-01
5.141326650544799648e-01
9.620424255862429774e-01
9.547713588703989895e-01
6.131381921370124832e-01
7.067468883654393075e-01
1.326260573903549123e+00
1.138523412501868837e+00
7.546302058895405507e-01
1.625151017258852360e-01
9.093059086884832665e-01
7.302085984651085493e-01
-1.240401444013542881e-01
1.307528013101954212e+00
3.801680516781408281e-01
6.930805231223392537e-01
1.380336262558000127e-01
3.439716092981912610e-01
-7.289597736131409045e-01
-2.116545162329616758e+00
2.367335547010402941e+00
1.727168946197590982e+00
2.793147825052249900e+00
2.177500329466524498e+00
2.121621404399902211e+00
1.978360646553051660e+00
2.318431791257323571e+00
2.066883295819116118e+00
2.433162931703642062e+00
1.998706668499315997e+00
2.251196846259392981e+00
2.594114831105093888e+00
2.425088707193618909e+00
2.562841539733817786e+00
2.127650837744429868e+00
2.235141986873240505e+00
2.433135167351917261e+00
-2.893890010229275500e+00
-2.432546499742094248e+00
2.684197858667945358e+00
2.260959523803715232e+00
1.647889143726745331e+00
2.335140267319266716e+00
2.228527609555384537e+00
2.364571008852592193e+00
2.187019092864205039e+00
2.357741254653649587e+00
2.548818891129880360e+00
2.161306186994658596e+00
2.271013980307507563e+00
2.586633478205113690e+00
1.644115846866372799e+00
6.193731281719223603e-01
9.523421434424366172e-01
7.289953855541410066e-01
7.632576740586604069e-01
5.212842863636276691e-01
-3.348304981228059640e-01
8.995620682047554828e-01
6.219190859785029835e-01
7.491613343082025311e-01
-3.175850448591728270e-01
-5.140015166809470681e-01
-9.062587710247590467e-01
4.249489064164369001e-01
-3.029989738590456172e-01
6.885283760609729464e-01
-1.041451319885375426e+00
-2.205886083801256170e+00
-2.493278220649208787e+00
-2.812805304992026745e+00
-1.868166363115065121e+00
-2.295306846142506796e+00
2.616719131269567011e+00
2.460229901292548593e+00
2.336734662807519847e+00
2.083063049810718770e+00
1.813719122587256427e+00
1.963692803838082535e+00
1.853865530386141325e+00
1.826039026013091204e+00
2.702317243926980250e+00
2.029365762337457024e+00
2.440619142133601205e+00
2.125272053039366948e+00
-2.263348251399574185e+00
3.133721897255903777e+00
2.289077037893608946e+00
2.567028940761812095e+00
2.595673143701471730e+00
-2.890652869652021728e+00
-2.768605053015995132e+00
-2.564192663968941410e+00
2.453400016574134757e+00
2.630530189204132174e+00
2.478267111312950632e+00
1.946837866661946359e+00
2.021642447929937081e+00
2.836905331300071165e+00
-2.810862813360179402e+00
2.944912501957733131e+00
2.403431572400818172e+00
-2.925948053598562915e+00
-2.316474928054328863e+00
-4.644158637386592847e-01
7.208199824570183933e-01
6.293966384833348249e-01
1.246049976940627912e+00
-8.186839146630162656e-01
1.654024933767383673e-02
7.714535352170397431e-01
1.570417035018814023e+00
7.855308618725289627e-01
-1.385787790925048668e+00
6.588193648805537039e-01
4.491837430255008479e-01
-5.120780599573280245e-01
-6.308514517514303144e-01
-1.184614238430559130e-01
9.879918386599338964e-01
1.108952213443835211e+00
-2.479068205601497321e-01
2.957134987591396591e-01
7.839472494415324899e-01
1.135311032924304353e+00
3.094971590938617734e-01
5.226999127541557266e-01
6.973149734670996969e-01
4.545428739105927263e-01
8.169405597612146019e-01
3.878500853751272737e-01
5.354300637879958469e-01
8.423782047356385139e-01
7.416244971603132008e-01
6.389390336221782984e-01
6.656076406004479695e-01
-5.274028920124971265e-01
-4.109037479406988935e-01
9.379775474654679090e-01
1.293347857539313583e+00
5.956678748613348784e-01
8.312124671456925240e-01
5.837449960842105989e-01
8.629640214718476976e-01
7.247784546672545458e-01
4.661039461427077812e-01
6.520297204058792540e-01
2.582498712013213016e+00
2.668933683931535850e+00
2.161831451746428545e+00
1.956272300429982014e+00
2.561429935788042123e+00
1.893707634826066633e+00
2.379226839488955303e+00
2.376271951043429809e+00
2.342105392161961674e+00
2.310568037326854007e+00
2.203041421699165170e+00
2.292826110355158598e+00
-3.000360708482595840e+00
-2.398654817592695387e+00
2.880591848587335413e+00
2.699555870516830325e+00
-2.607016444812439548e+00
-2.591287556877270415e+00
2.558925729582967712e+00
2.912327541850392443e+00
2.110405236636739623e+00
-2.596782109053560550e+00
2.417056192868037190e+00
6.471851395861085710e-01
7.978765418772629792e-01
6.899476708282038517e-01
3.428646006665603818e-01
4.371432588076620274e-01
1.204942151156228158e+00
8.149904798291944807e-01
6.657477980423280595e-02
5.526690345146331174e-01
3.053417489467178392e-01
3.867139319743618242e-01
1.147547589303034021e+00
5.117274990916532706e-01
2.077641646431195976e+00
2.174830449721486314e+00
2.255978939752351753e+00
2.926538368483339259e+00
2.534155175544513305e+00
2.873871644218428667e+00
2.290889927361427159e+00
2.438912672917910474e+00
2.974996909141130352e+00
2.466852447207197763e+00
2.082379454421593667e+00
4.796899403219782587e-01
7.136329651643711358e-01
8.967921163716423560e-01
5.740323125006965288e-01
1.469592572103630035e+00
2.551551101269543764e+00
2.170140965825607893e+00
2.196849772671622514e+00
-2.605804153876038587e+00
-3.092119143919831448e+00
2.483218897345798037e+00
-2.171113945853169191e+00
-2.511378153080364495e+00
2.466096386184033040e+00
2.436675244297778153e+00
-2.710476010015981707e+00
-1.004951606309935075e+00
1.939380981174457508e-01
5.932665004561333832e-01
2.876234606470312372e+00
8.444441250739889160e-01
1.124998754154076019e+00
6.807236227719741795e-01
4.374646216658124587e-01
1.050297485965859812e+00
6.548176128465702517e-01
1.694963604334276397e-01
4.355504125925135916e-01
-8.830130602206205381e-01
6.165752646737009401e-01
6.641369211896248625e-01
3.795510092273910452e-01
6.451318549964339955e-01
-8.712593998364785985e-01
8.208292907675897032e-01
6.133544151228974561e-01
1.526881474871731426e+00
7.131239192926224213e-01
6.472917962943903758e-01
4.449097619656223745e-01
9.897187525742252578e-01
1.200111930526966297e+00
5.736470113746628963e-01
4.848629093973263471e-01
-9.640379051482009243e-02
6.913834646161686193e-01
1.228904050596516390e-01
2.229066662101100438e-01
4.708876923231666289e-01
5.692077725665504184e-01
1.012375183078859653e+00
6.208666315578494910e-01
1.291989252696908563e+00
9.283357919917595291e-01
7.096037200857278071e-01
8.273135513746104897e-01
-4.932466768646460997e-02
1.127047646171323025e+00
1.310527303169735092e-01
8.749368037047551283e-01
9.488552597838770808e-01
1.011847145429496386e+00
9.382212009574673051e-01
5.377367786449286369e-01
2.621280610960240454e-01
4.699850743454739854e-01
7.510932991752404808e-01
7.769224822436693323e-01
9.556083430955805147e-01
3.806156368039359528e-01
1.283050440260661507e+00
2.158060653521316929e+00
2.103888590487078769e+00
2.607228463705398624e+00
2.348503113209629678e+00
2.501012168219892473e+00
2.316235993930343184e+00
2.415033736534681452e+00
2.073785939286509894e+00
2.227460223220637747e+00
2.387412751442752779e+00
2.398275042538860369e+00
2.567021835877678182e+00
2.683282222548327489e+00
2.490679794579649275e+00
2.958706936321308767e+00
2.309595792289376170e+00
2.573566570950149845e+00
2.428250377984287667e+00
2.112294986024926935e+00
2.490459342475201066e+00
2.218781309490665876e+00
2.966747681933564085e+00
2.752021335176269456e+00
2.451921706605306284e+00
-1.766745799563605557e+00
2.263612074177171696e+00
2.630950682518314654e+00
3.058476398973891452e+00
2.224758283150480853e+00
2.863793457459502534e+00
2.435460756834801010e+00
2.750244334192459394e+00
2.508773550217680892e+00
2.355338700504057581e+00
2.562979644691296244e+00
2.655882519912144968e+00
2.568517560256834198e+00
2.868965637199063501e+00
2.570558325699969338e+00
2.405980617760375306e+00
2.323500531351067711e+00
2.054721464272302622e+00
2.825864180640637713e+00
2.343499625379645845e+00
2.219156660584693963e+00
2.498307392440058727e+00
8.287555499946487325e-01
8.601188541118690578e-01
9.971870204077356581e-01
8.006913275275869823e-01
1.006483737900817577e+00
2.091270344938438885e+00
4.872996836391293995e-01
8.254845718843130120e-01
7.021315004155445072e-01
-6.248326851930998682e-01
-2.445738553012244410e-02
5.771107285429809552e-01
4.058336836919714252e-01
6.130310371897776944e-01
2.102161031519118151e+00
2.737733332021353050e+00
2.102236914786605126e+00
2.199428956475216079e+00
2.139078715650673868e+00
3.109963507019055662e+00
-1.939324657817572684e+00
-2.648112315739293177e+00
2.153415031257201573e+00
2.376463943058751749e+00
2.455798709468114627e+00
2.348739146473293182e+00
2.239430819372241643e+00
2.722258016680489057e+00
1.482022336197534429e+00
2.248844034636633404e-01
4.697085152532483598e-01
7.164445647716980448e-01
3.456484765808973125e-01
-5.925384922393104326e-01
8.561418066001470484e-01
-4.927098877856589398e-01
-6.922087044463571814e-01
-9.516008468337296966e-01
3.346676752444310288e-01
2.227515832796979900e-01
9.878251598252985044e-01
1.005301719714971398e+00
5.496856826125515738e-01
-1.183981418862695839e-02
9.952366533127108283e-01
-8.374290554539282061e-01
7.265419872537057788e-01
3.572462766686750890e-01
3.845949929828421099e-01
1.249495877259061194e+00
4.265757440206431328e-01
5.491769736016181014e-01
6.064127348257467576e-01
9.205957446537755828e-01
8.029513835022020762e-01
-3.797898902083635675e-01
1.049254754806013601e+00
9.994666376109023753e-01
1.591973460762961118e-02
6.469855681924916446e-01
6.823613921410924821e-01
8.351679211655689272e-01
2.172943740988792172e+00
1.191807436246374197e+00
-9.490803785671449999e-01
-8.799810700302749256e-01
-1.020143167132153028e+00
3.994750675220397063e-01
1.014587514003705726e+00
3.695893346714698158e-01
8.733566086542083884e-01
8.705346102465799651e-01
5.082757840508231872e-01
1.099378656256494891e+00
8.107043140610873388e-01
5.622620135233723504e-01
3.546472522523903548e-01
1.470763788373010694e+00
6.083396539727347063e-01
9.097873115077226291e-01
8.418148097470717905e-01
8.748607235617291700e-01
6.233074007424483920e-01
7.779033078601422790e-01
2.270299740702999003e+00
2.748036293259929153e+00
2.003513946900004505e+00
1.926718333505738956e+00
2.595323706562540522e+00
-2.284298163058191555e+00
-2.081343671046449462e+00
-2.339339967866068459e+00
2.886129705482362695e+00
-2.943866001239288099e+00
2.363656735563360645e+00
3.216363786830059857e-01
-1.839978986863611832e-01
-6.986019432453255060e-03
-2.709228392805904662e-01
1.430202564234786422e+00
1.028415050437416323e+00
-3.122204183995573867e+00
3.101848306954834822e+00
-2.901577022116936355e+00
-2.341528691996482170e+00
2.873982145715267222e+00
8.412524547058921609e-01
-1.363579234881606705e-01
7.265473930568817629e-01
8.310271391309433930e-01
8.015009907921132326e-01
6.470861892672582494e-01
6.628798459294438228e-01
5.069733569684486962e-01
2.173185972352522644e-01
5.529660930871593827e-01
9.830299431122877518e-01
1.798625824477802781e-01
5.219051462571986377e-01
-2.410259243781061878e-01
-9.437509808473124040e-02
4.090987682168343298e-01
1.042914955618523098e+00
1.592496032334189016e+00
4.527522587457825098e-01
2.756806374345753818e-01
9.271773410981996033e-01
2.353361299806903784e+00
2.686901426189317377e+00
2.011757555211262982e+00
2.109064610238735149e+00
2.406873914884977594e+00
2.657979025179683319e+00
2.381600644801914690e+00
2.616689072523279869e+00
2.074194003632702010e+00
1.933626207172056244e+00
1.595142310780815365e+00
2.312082895883428080e+00
1.852103924578435867e+00
2.998686492956162741e+00
2.208925692247682981e+00
2.731550104695302128e+00
1.522464580847639137e+00
9.659341341136556958e-01
4.084094602620996217e-01
6.497728129793843843e-01
1.088464780897880679e+00
5.884716070810795951e-01
9.964419157932205007e-01
2.381753575423877778e-01
1.384392531981090579e+00
6.756228044294564361e-01
7.835510987160596574e-01
-1.880180855227849834e-01
-7.179349536192282111e-01
-2.534112057539456675e+00
-2.658140869189400846e+00
-1.981851946322540359e+00
-2.261970806706001813e+00
3.046747226726822966e+00
2.218101811875116347e+00
-2.895316823282191532e+00
-2.519826898588614306e+00
-2.774066210286944223e+00
-3.044433901511527374e+00
-2.274294822853938136e+00
-2.477940555628818320e+00
-2.342170503772632806e+00
2.867793146845189156e+00
2.260474360415799744e+00
2.821670306045615195e+00
2.105168067698282464e+00
2.218787725522818999e+00
2.333353436762755972e+00
2.250559076655402890e+00
2.355104219110191188e+00
2.549904543092898379e+00
9.210397149172859788e-01
6.996486363378254802e-01
7.531990680807562066e-01
5.063260666629066931e-01
3.804893607499764130e-01
-3.292024389783186344e-01
-1.216658753780171937e-01
-8.587118208554778143e-01
-1.114100681714716323e+00
3.209590132103704585e-01
2.302399690076960770e+00
2.757844620868132868e+00
-2.618129289859578268e+00
2.505501496583329768e+00
8.581302551414121682e-01
2.518403524189811282e+00
2.377408895161157609e+00
2.533553865028465690e+00
2.291048790175068461e+00
2.778625665548665413e+00
2.266999731375938687e+00
2.779244587720862469e+00
2.872528130299361937e+00
1.971984353633530196e+00
2.825967697050781879e+00
2.320407954045903054e+00
2.731740751649397225e+00
2.841582832333804376e+00
2.855060093090193707e+00
2.589114267396635860e+00
2.648846265532438071e+00
-2.509011963923983846e+00
-3.137728038186749835e+00
2.676614146518962123e+00
2.273121234027477122e+00
2.249431915711934238e+00
2.502208607631772885e+00
2.702153750857818171e+00
2.267605839373943333e+00
1.997194170620299580e+00
-3.030511164992732986e+00
-3.010587272788838309e+00
2.164305386414652421e+00
2.710430263099333104e+00
2.518702392638973997e+00
2.469711964399588400e+00
2.457426828871048574e+00
2.450499201053572662e+00
2.143128671868272495e+00
2.404490296113227732e+00
2.147690912767223903e+00
2.686196109462041015e+00
2.026592454340497618e+00
9.901231156800496258e-01
7.733906681541226069e-01
5.306717333302675144e-01
5.196750774865074307e-01
8.523622488558030286e-01
3.136955055696900030e-01
8.736876072881177846e-02
4.307717049283221744e-01
1.180889684224959213e+00
6.203969274053171556e-01
9.729907687101979619e-01
7.821915558497821719e-01
8.752780412763667695e-01
1.048031210791361856e+00
8.801700733965286405e-01
1.212359562120281398e+00
1.115457251054559284e+00
8.239120891435315341e-01
9.051192385826304365e-01
8.331326333118479477e-01
4.726300722668598242e-01
-6.437080646478478274e-02
-1.053275427827407851e-01
-1.994951605068576717e+00
-1.863080613338682801e+00
2.592773034459515902e+00
2.254433870208856661e+00
2.446193571822639079e+00
-3.039443829274714570e+00
2.430672989177344423e+00
2.576268001228998017e+00
2.490862405698804238e+00
2.609580400876623241e+00
2.464599127733733130e+00
2.145202162246229172e+00
2.464110033148858125e+00
-3.130012945625106902e+00
-3.083578758594554881e+00
2.560204388467451686e+00
2.310118253322934745e+00
2.887921380572020968e+00
2.274308020269569575e+00
2.384349335766525080e+00
2.718644806837699601e+00
2.857382060266746571e+00
2.366442820479354836e+00
-2.964637338035845282e+00
2.106888530347813759e+00
2.948726480558947483e+00
-3.083911735900958018e+00
-2.275125454345322762e+00
2.694769554267120615e+00
2.475240058786503106e+00
2.425666794263476866e+00
-2.078041439051141914e+00
-2.693715526868984522e+00
2.586294743265199703e+00
1.995455288379900827e+00
6.264500863019061283e-01
3.634014365750110609e-01
1.384116735132661091e+00
8.616079111288201808e-01
2.875486226086662045e-01
8.299083807235080323e-01
9.523611610743603073e-01
9.535535966336353697e-01
9.120233309553088530e-01
7.935972949508838248e-01
1.117362247313901991e+00
-5.877863153732665324e-01
1.233413955670354945e+00
4.938941160166429589e-01
1.042486030895537485e+00
-4.870237755216518249e-01
3.710727589222556078e-01
8.166388819908260155e-01
7.072304519366805486e-01
7.983171559473143386e-01
6.298243960368158367e-01
7.819848699901719158e-01
-2.105201433896456142e-01
1.087370641927800863e+00
4.519578410759328424e-01
2.527188027691152361e-01
-3.247062544906603176e-01
7.644755183020289779e-01
6.965907516710517777e-01
2.414137745126068602e+00
2.073297488087446183e+00
2.342427569520533659e+00
2.428834934760291997e+00
-2.917587986690388657e+00
2.917486188265913771e+00
2.713366342357939942e+00
2.334841779709208254e+00
1.758883326383365642e+00
1.853351614686275406e+00
2.506860891457314722e+00
2.400485822078749720e+00
2.251488049472657238e+00
1.665751693469131212e+00
2.616170058459504677e+00
2.315465295329336204e+00
2.003573544180452526e+00
1.875270006303019654e+00
2.312307866900566999e+00
3.111277568629768453e+00
2.403364127996284072e+00
2.702705476288615127e+00
2.038908156606090483e+00
2.719396791573376326e+00
2.486224885193059286e+00
2.206236505600830622e+00
2.365241451930261807e+00
1.807052101065898864e+00
6.316116958908866152e-01
1.473587671137979394e+00
6.241012288552444387e-01
2.860295375377910343e-01
4.301982489480413174e-01
8.599339188054768712e-01
1.223331043727228451e+00
6.160486602346525453e-01
1.045152809779340330e+00
1.227865514404997915e+00
6.958484406167525504e-01
6.981241238912270219e-01
3.796308699353462823e-01
-3.379621041884423027e-01
2.335279015106301870e-01
5.275035080626829798e-01
-6.538264448143275009e-01
2.694113158080328474e-01
6.966521123932880588e-01
6.746731589851401312e-02
7.467865199444129187e-01
9.401089832084420506e-01
9.230853672947869626e-01
6.461682825817961495e-01
9.426684898452635242e-01
2.084946715446549081e+00
2.356110547188517756e+00
2.297914368177159883e+00
2.514747364124104489e+00
7.445759022693541063e-01
9.143844072548844570e-01
6.360445538570868029e-01
-5.814416773980731756e-01
-4.539337498540548244e-01
2.647207495730302673e-01
-6.364702072329150306e-01
-5.694357155156488659e-01
-7.177184155119228359e-01
-1.456732709977333062e-01
-4.838656267402456357e-01
-8.612094650647744709e-01
2.907927280421606642e-01
6.070733744070698767e-01
9.628476685777633826e-01
-7.913615930624380290e-01
3.822692903746131576e-01
8.579700850974583126e-01
7.664292641315132437e-01
1.628514695634607712e+00
6.035039102537278488e-01
8.404689127542896987e-01
6.643187685316835900e-01
4.531881034645371953e-01
6.868328253446620568e-01
5.318160806703948751e-01
1.091682663455388447e+00
9.275220382274832476e-01
6.644784526917283385e-01
3.983207572810444907e-01
9.999246901932558051e-01
8.857740456564064946e-01
2.951912063305098810e-01
8.491693088326681682e-01
4.314649133260117231e-01
6.405302549245110999e-01
5.980587631048954744e-01
1.231152781028216570e+00
-2.110009782234423537e-01
3.339100450131363140e-01
4.580368886841555964e-01
6.413070104210987221e-01
6.971876545210660137e-01
6.958741139551871679e-01
8.666498610716526496e-01
6.388278148289473490e-01
4.788239077119836873e-01
9.535917047533214452e-01
9.959547292168730026e-01
8.048725903043912888e-01
9.535123778512030190e-01
7.699310592665469244e-01
3.995414208757133157e-01
-5.083206071136148196e-02
9.946012317065980879e-01
1.119184797440877288e+00
-2.997794490136664394e-02
-5.587072817763166777e-01
-4.615253421754125784e-01
-1.163137457451887263e-01
5.313828591353921826e-01
4.117864807840367347e-01
1.107105522144918419e+00
4.707192426556302545e-01
7.762624976021350598e-01
5.613399336890406710e-01
3.448530662093927113e-01
9.364679723364898178e-01
3.984722501761984170e-01
7.745420184707844102e-01
1.093503825047562827e+00
9.854925191734762446e-01
2.342678462908359960e-01
6.822089405777957971e-01
7.351967942778959708e-01
-1.886727076462155206e-02
1.072176608841214129e+00
4.542450313827866570e-01
8.886245600194918604e-01
-1.046453996281263427e-01
5.258023046529217703e-01
4.962707962486336277e-01
5.929298976284067546e-01
5.004077334179590775e-01
6.961508255178898708e-01
9.055594827994405405e-01
1.189602082087893420e+00
2.616740818612220965e-01
5.971865241575534666e-01
-3.734100795685127427e-01
-5.607725210354236323e-01
-7.682794910030154023e-01
-4.972193117224333325e-01
-2.121346319566268512e-01
8.311717649086806103e-01
8.882071955599704083e-01
9.335413294518609684e-01
4.418927095389219573e-01
6.856095695550786795e-01
-1.026864443004282118e-02
1.402811000868811275e+00
8.394494385592511376e-01
-3.109786864204280299e-01
7.252520445999989240e-01
1.305703243331234109e+00
3.526713039662507931e-01
8.147858726432418708e-01
3.143749393623173627e-01
3.028065990273474672e-01
5.278819927294325920e-01
3.070050393063935568e-01
1.177332972567234792e+00
6.114312570417538284e-01
5.578547345195936646e-01
-5.511943439693632596e-02
2.211542285679887476e-01
-1.722665634398601542e+00
2.964439326771591610e+00
-3.042020802139306923e+00
2.440026455319376453e+00
2.725124151012591422e+00
2.358533474923428574e+00
2.724689095497682345e+00
2.897912811002082645e+00
3.020053816444848938e+00
2.927248558246563714e+00
-2.929967670225908982e+00
2.436898130815697616e+00
3.128534309799110069e+00
2.638188487675527494e+00
2.009193405892122364e+00
2.031706959731697015e+00
1.825726245272834891e+00
2.445953835777929353e+00
3.116313429686847325e+00
-2.307762763743621548e+00
-2.716180160549715339e+00
3.020836143854822353e+00
2.575523324287311233e+00
2.634800728210028975e+00
2.226721330924737341e+00
-3.017157906860912231e+00
2.242525659972132157e+00
2.058704928142123247e+00
2.761968119293239265e+00
2.649570273782355656e+00
2.627818102177882587e+00
2.727347022048860037e+00
-2.740790552196844310e+00
-2.861269657430702384e+00
2.836197704640587514e+00
2.663451894867579384e+00
2.675397419572025370e+00
2.370214161765941796e+00
2.534280504624016661e+00
2.435254433299890220e+00
2.154011182158416471e+00
2.145969515845167486e+00
2.615653846766198054e+00
2.623956722010692744e+00
-2.694028463206387780e+00
-2.666216127168663519e+00
2.646743018432852423e+00
2.351902315811498667e+00
2.534688283651887364e+00
2.431509634155754718e+00
3.134884150227683630e+00
2.720334619621699535e+00
2.412487991374042462e+00
-3.108998666093456098e+00
2.732352621828443962e+00
2.689578260607931703e+00
2.027174137612096860e+00
2.765401496999568831e+00
2.375758162216585756e+00
2.159749760255289530e+00
2.334425447344795845e+00
2.629995199097676206e+00
2.530590782931163130e+00
1.057691819735413707e+00
4.189839653300619360e-01
-5.993880706555052562e-01
-6.061672885034452563e-01
-5.126204339860532810e-01
-5.042624910063429056e-01
-3.452818502549377406e-03
-6.671716907889226889e-01
3.399869487308235794e-01
1.550343888007389870e+00
1.112612054655574889e+00
7.754481719302438458e-01
1.294961380545276430e-01
4.565942110640918150e-01
1.016367088501938465e+00
5.061185510414782929e-01
1.182577399274930441e+00
7.970667612669579682e-01
8.615004403261964372e-01
5.768888876388162945e-01
-3.048691015094852741e+00
2.474257086530407435e+00
2.091439320410338976e+00
2.321817757339443400e+00
1.868361030614873464e+00
2.755043202565933491e+00
2.299049271177118214e+00
7.503008885167470332e-01
2.314106938838783600e-01
-2.332875687416712474e+00
-2.476693866750447892e+00
8.258477074143898422e-01
-8.009704789307912909e-02
1.707991885716889424e+00
2.710599242052038615e+00
2.389998215872585430e+00
2.616280721767976658e+00
2.729628553570631055e+00
-2.924985393792808086e+00
2.231911445277956929e+00
1.042986461466628212e+00
3.471929264129249848e-01
3.740735078482367720e-02
3.825360931727033731e-01
9.586549423007657555e-01
8.064156847271063411e-01
1.022236577339045299e-01
6.665219590217036361e-01
-9.478205791084581833e-01
8.251747379714000630e-01
4.132849672899372995e-01
2.494677424119937648e-01
7.343152455527638400e-01
7.335289505300127688e-01
1.293966550041649066e+00
1.121796400076692013e+00
-6.759276957309432454e-01
-8.544953798916546939e-01
4.912092843512115559e-02
3.337431061113147468e-01
1.124343294107631674e+00
3.174139871401089885e-01
7.304118268047962159e-01
8.476324404404085300e-01
4.490546696005217608e-01
1.093480725617752974e-01
8.265063149710055734e-01
7.819088092213355434e-01
5.535949017732240129e-01
8.948791336025549992e-01
3.783925661498047655e-01
8.867876784482398023e-01
8.814698441583314337e-02
9.760804256601983697e-01
5.622003060172886535e-01
5.318268125605544183e-01
1.162270779774423390e+00
5.206033542927837043e-01
6.431531830007771733e-01
7.918478831827078235e-01
-4.426331745872734702e-01
6.839570926592927202e-01
8.754337445491092717e-01
1.507385461583108377e+00
6.231888812453002524e-01
-1.623299865400793796e-01
-9.214131895215632584e-01
-9.518909720397112917e-01
-7.261740231596606199e-01
9.469584771367600684e-02
2.274853320192191941e-01
6.965874406105466710e-01
1.171869666026211565e+00
7.635127661926759401e-01
4.961464519857464728e-01
5.981637510786382700e-02
4.345900550909361781e-01
2.141376889248145066e+00
-2.642787737458377695e+00
-2.923848986191468491e+00
-2.453403026093917028e+00
2.161980455370888343e+00
2.362070429683764239e+00
-2.420132520774029405e+00
2.720536834516052771e+00
2.686393251332497289e+00
3.023614933508853131e+00
2.284026218680082376e+00
2.438395355386656416e+00
2.013866417248961760e+00
2.372687946150212390e+00
2.906580832565469841e+00
2.444582437523992624e+00
2.709935458467861213e+00
1.914064605239593764e+00
1.206303371998644458e+00
4.758579036485607872e-01
5.581039636083583444e-01
1.204121526408605813e+00
8.970859758009667173e-01
-2.135606343297773990e-01
3.847451762968112088e-01
7.831177383477536669e-01
2.891502093965059306e-01
4.356778460664659236e-01
-1.043868080404089183e+00
-8.514234673668003017e-02
4.260229099023876698e-01
8.113670900825720178e-01
9.380308312905091261e-01
9.636756056873438947e-01
2.307494070744932291e+00
2.490453409021181841e+00
1.880867278345540905e+00
2.368579838232504287e+00
2.322540454847706659e+00
2.449508157295902766e+00
2.987035447269201338e+00
2.755310845152474375e+00
2.881294774362541222e+00
2.336063278280529509e+00
2.177658064043006991e+00
2.363728479099451718e+00
2.467253298607359646e+00
2.141579374033484751e+00
2.927489343866967797e+00
-2.553287713619518229e+00
2.830318084897772923e+00
2.240561212072532005e+00
-2.268952625527520972e+00
-2.765041755453335970e+00
-2.928027316706549588e+00
-2.229256163628922316e+00
-2.768300725723768618e+00
-2.068085688264199362e+00
-1.410148362666039379e+00
-1.079514810540224801e+00
-1.004008838318439123e+00
5.923973473137024159e-01
8.093159436750453350e-01
-2.402920587134979302e-01
-1.078044215570560072e+00
-5.667268600446111471e-01
4.670043758599634054e-01
6.796982990840200189e-01
3.273497186168632805e-02
6.584564500766485473e-01
5.904659334037926088e-01
9.494695736244848083e-01
6.006686085995761593e-01
7.555652413262238243e-01
9.345014028169996712e-01
-4.111761103409963258e-01
-2.693674391177789951e-01
-8.617407970985304644e-01
-1.571087338377898934e-01
8.895709790697075015e-01
6.785589431723164644e-01
1.118842384914024546e+00
3.406661200792515665e-01
5.914980409534272843e-01
8.096732784614843470e-02
-4.837219469282315054e-01
4.557267667007371403e-01
1.091134697689297717e+00
-1.630246819177829931e-01
6.411080069145805860e-01
1.268594878261437797e+00
8.072656614777022899e-01
7.313715030150926832e-01
-9.277726261329168889e-01
-1.690248487137927247e-01
-2.565706582735170493e-01
4.858176345637200133e-01
9.135089362767676580e-01
2.615569291909090599e-01
7.147461809222732665e-01
4.192393477626844556e-01
6.398921046957073422e-01
6.230140123864268409e-01
5.474083242983773800e-01
9.767573838434631117e-01
9.672580991165639075e-01
7.636715411146677290e-01
4.477463506631112478e-01
1.013385026612604989e+00
5.341224140942302245e-01
2.105672934273416619e+00
2.446160780109159827e+00
2.605177704798000704e+00
2.542309184772145070e+00
2.481179273735781621e+00
1.864401391084354653e+00
2.521320126665193229e+00
-2.797428011807063353e+00
-1.343731161009306341e+00
-3.626577560531203392e-01
-8.128899861114359249e-01
5.141794510282674535e-01
8.048339708337330922e-01
-3.704687713883134115e-01
5.685280441286965081e-01
2.918430502359997680e-01
9.760394903428424307e-01
3.473027637195207351e-01
5.313567326895024534e-01
8.632306570191154993e-01
2.922481938245610755e-01
-3.412036532573983066e-02
2.465305384477622583e-02
3.625891407944861755e-01
8.980845335431085763e-01
5.962733775498286759e-01
4.974163978150804022e-01
-3.322188318669058726e-01
2.339466763740548697e-02
5.590792332189252756e-01
5.395725867519844954e-01
6.020347536268582100e-01
4.992531151612818463e-01
1.101471922292603711e+00
4.523237659341147743e-01
7.808221662330016022e-01
7.835889394698221100e-01
-5.145119624081365695e-01
-3.560315222417265724e-01
-7.718832271856886917e-01
-9.031070614780233319e-01
9.293182708979900175e-01
6.119876981347145417e-01
6.602328112579909369e-01
7.730147564040944497e-01
5.468721713430865217e-01
2.170703686322177361e+00
1.888022430489841197e+00
2.565882731907073389e+00
2.501179652216557248e+00
2.507465819094737647e+00
2.125167593071239924e+00
2.220886984995142921e+00
-3.059549383584001969e+00
2.834025162697887179e+00
2.812506904225905657e+00
2.044505119995546849e+00
2.478260450336712939e+00
2.157329941312069899e+00
2.480500035239863177e+00
2.293408518513098127e+00
-1.010125463208789293e-01
3.815228143111114023e-01
1.045842486993285636e+00
-8.627549770648401672e-01
1.691498913439363691e-02
7.425663656982441907e-01
9.081410474496880436e-01
-3.757229151745735546e-02
-9.098807742671299881e-01
-2.659981656823402485e+00
2.605150004385663021e+00
2.556835127262705232e+00
-1.934164637015202803e+00
2.317840866568535052e+00
2.430432288820605802e+00
2.455196352207845933e+00
2.615537127387442151e+00
1.807976268248121077e+00
2.127027885674353858e+00
2.768834667087724188e+00
2.074371695296814977e+00
2.555141954061426635e+00
2.814680885585379766e+00
2.354206890092224391e+00
2.418681536749829331e+00
1.721009449016049686e+00
2.032891636102869715e+00
2.603207121135871827e+00
2.826574526952985611e+00
2.524288481324802103e+00
-3.111145677434932200e+00
2.348336710066026178e+00
2.845219008087950474e+00
2.331354027427752662e+00
2.480345593497596646e+00
-2.395112889618754792e+00
2.135955871194306077e+00
1.771695102397733423e+00
2.275659406778783200e+00
3.003107365166669318e+00
2.277394710390793886e+00
2.559766450032153084e+00
2.136829818832329142e+00
2.963830549272469916e+00
2.981738911068433584e+00
-1.316966875538670978e+00
2.641943499610202029e+00
2.229522943307494565e+00
2.600907301770169155e+00
2.511907087701761743e+00
2.019901234462453843e+00
2.719809531678605730e+00
2.221072439883289285e+00
2.199020117606220293e+00
2.129629603055746223e+00
1.306819972376740413e+00
7.210186301982710599e-01
2.331202916250884716e+00
2.085490862578899041e+00
2.444645933454375530e+00
2.406141387976659995e+00
2.905593266868196523e+00
2.704956025828090471e+00
2.780626565612140499e+00
2.865267796269505673e+00
2.338384480266439969e+00
2.142174905723153611e+00
-2.980190762578225350e+00
-2.668070550136422803e+00
-2.679863688334057858e+00
2.676667804895092484e+00
1.121895247947970908e+00
7.827993882010351179e-01
6.940382703964154132e-01
4.069761742497025048e-01
2.369667537610749275e-01
-2.702777160572155668e-01
-4.849940920729903793e-01
-1.143028434673148297e+00
2.721273004291796527e-01
3.354446410517887556e-02
4.279326508387821804e-01
1.105238785746464503e+00
8.017147855704070958e-01
7.286809183522429123e-01
5.003523213875141762e-01
5.171745359991150037e-01
6.556686644038954848e-01
9.001066161684077027e-01
1.018309949397242287e+00
1.308104493323093975e-01
4.782065419140993368e-01
6.593409522334753303e-02
3.731234889490082640e-01
1.007123170300775028e+00
1.409728522320207456e-01
9.064111946247674911e-01
5.823701770166761493e-02
2.068567262930237627e-01
9.972013056040773815e-01
1.079040935730495088e+00
5.930913800087366239e-01
8.009523269178255855e-01
1.180737133299773367e+00
6.301941911420469999e-01
6.920065695348418533e-01
1.143447033136198554e+00
3.608861102973054957e-01
9.591580636496311874e-01
3.972899621357346978e-01
4.955428447825911409e-01
8.926630753746548352e-01
1.091933370348832977e+00
1.005765997895971875e+00
3.721620061135796353e-01
5.647748214818846257e-01
4.260710796984948368e-01
3.689229125220035432e-01
4.432648058374251687e-01
8.572838020286343008e-01
6.006994381933192795e-01
2.418296150682523127e+00
2.514300778447552620e+00
2.732430911250551819e+00
-3.005473209027009762e+00
2.566682964609797946e+00
2.147081599804751662e+00
-2.410918537781151283e+00
-2.015584778020409917e+00
-2.931834687055689947e+00
-2.284727995675513768e+00
-2.111047715423149729e+00
2.430471347401075288e+00
1.722583487590509055e+00
2.450071370810976923e+00
2.703205986589654053e+00
1.796671489182243953e+00
2.189770609133123713e+00
-2.706012976609849741e+00
-2.215047428590303458e+00
-2.653161286613721526e+00
-2.230473878123053311e+00
-2.759277959957561865e+00
-2.235964389391146057e+00
-2.360782673884872285e+00
-1.358153439987271005e+00
-1.043379527786341354e+00
-2.463320163543110120e+00
2.912894605899997380e+00
2.749166956083968660e+00
2.642162094426188101e+00
2.330269469401808902e+00
2.493942206878017931e+00
2.383038625712738501e+00
2.663204623709046537e+00
2.701788712781320267e+00
2.464727420438807659e+00
2.448471385002932710e+00
-2.340532522678097749e+00
2.318146601331983803e+00
2.388239148329247108e+00
2.162835266452426186e+00
2.248338520619250769e+00
2.317368515543273944e+00
-2.638208174052996569e+00
-2.319791063121551922e+00
1.732843204670195814e+00
2.274640285407091955e+00
2.084471531066934613e+00
1.751622802179364058e+00
2.440336748488821872e+00
1.805979073520742606e+00
2.617294057543539942e+00
2.772237356438829625e+00
-2.555576398936798110e+00
2.026297122272447293e+00
3.139479853528799325e+00
-3.107192501744331370e+00
1.134603119038597452e+00
8.405891798060456388e-01
2.179496207800688534e+00
1.858158209339077827e+00
2.289406579685482335e+00
2.370004739586287990e+00
2.433414009710057613e+00
2.678073963451517603e+00
2.216822113717496379e+00
2.159092579823582270e+00
2.510368558168055486e+00
-2.058666164240558594e+00
2.876867496549399661e+00
2.044623074130619500e+00
2.399224719104849690e+00
2.568794572301556833e+00
2.219712952948639018e+00
-2.319669532495282294e+00
-2.218245458962372574e+00
-2.113450777547779769e+00
3.053027368513956841e+00
2.333782043441250398e+00
2.544946261090229811e+00
-2.623461943790214246e+00
2.478787854007657998e+00
2.341779753985215429e+00
2.829798745837566187e+00
-2.464405415694114421e+00
-2.804418233528686688e+00
2.378853465843873138e+00
8.621247619404647233e-01
6.361696751217268408e-01
5.723682341473782520e-01
9.757135782885333342e-01
-4.901128391647040505e-01
5.623242810436864803e-01
7.529492031656104256e-01
-3.248251286489842182e-01
1.029837279588713961e-01
2.231764021192788494e+00
2.504032628460448162e+00
2.189559520300148332e+00
2.266526899123939565e+00
2.590398972022994073e+00
2.865390455355863342e+00
2.663600694597660024e+00
2.754666198906931207e+00
1.570830925076062368e+00
2.858378195923715115e+00
1.652879623349500671e+00
2.538885258168070092e+00
2.577195343957344065e+00
2.450810764113362072e+00
1.613443170411961614e+00
1.179034572374446643e+00
9.074543999917893400e-01
1.123454511739273354e+00
8.854152414525576775e-01
-5.654576343162817098e-01
8.672181310463725201e-02
2.295592766423658060e-01
5.983238934587561397e-01
-9.482042869991148537e-01
5.496050144850282981e-01
-1.023708909920252097e+00
-6.904888970846781993e-01
-1.682247160814612785e+00
2.390436059854409212e+00
2.822203699948319322e+00
2.240370454949942580e+00
2.191502461659982526e+00
2.237925423200424646e+00
2.656729808538303761e+00
2.780235464122156497e+00
2.613636086802201497e+00
2.478085897963709705e+00
2.723460115034665563e+00
-2.537410933328417606e+00
-2.277431735285224246e+00
2.551486272671786626e+00
2.180777866907884111e+00
2.270781707199035715e+00
2.609676911783263442e+00
2.662266668191839436e+00
2.840715298727749083e+00
2.625642494686831530e+00
2.678183336863239283e+00
-2.273167885893113471e+00
-2.361129863875819801e+00
-2.039062629439310825e+00
-2.394060292278662683e+00
2.898951239543359648e+00
2.373131909178107790e+00
2.542349378838261842e+00
2.890670026033510087e+00
2.404747624075242562e+00
2.698569634258277450e+00
2.383019957792204213e+00
2.149339630898675857e+00
2.573036269810045518e+00
2.454430548330128303e+00
2.558008602142830323e+00
2.588601722887017065e+00
2.228042099559797595e+00
1.841056586646804716e+00
-3.094742104940133132e+00
2.389682451737700664e+00
2.218686744906005259e+00
2.690692478185540359e+00
2.604239015789528988e+00
2.281462097472188422e+00
2.338988961947523926e+00
2.767399397075331891e+00
2.304283333311226478e+00
2.220452239724666210e+00
2.450825977472273376e+00
1.834347129326434844e+00
2.302591018948555224e+00
2.349252503926630542e+00
2.477533076585806349e+00
2.650270168799702120e+00
2.190704530832926267e+00
2.046081495622533719e+00
2.398137342748837053e+00
1.952209580596856453e+00
2.431232959904169988e+00
2.758281587187779937e+00
2.932906403689151453e+00
2.416200657523338791e+00
2.470766898296357983e+00
-2.034990633986754283e+00
-2.406215000487498479e+00
2.643628422114272958e+00
-3.083279032611641934e+00
2.371758302006980124e+00
2.031291214026874403e+00
3.391486906597331319e-01
1.049890455117411747e+00
1.006602176572227503e+00
4.807239342888092182e-01
9.096892395056824787e-01
1.231020228369429814e+00
9.308658122193083084e-01
1.071081018348243319e+00
5.610626604121927707e-01
5.226153097548266180e-01
6.382125263734692577e-01
4.499550374334299052e-01
1.124459955474111927e+00
1.194339635337802186e+00
9.033982154180971724e-01
3.384142005157627087e-01
5.833555263089983400e-01
1.054671859016595770e+00
3.884096805883783809e-01
1.493470200252567659e-01
2.994460569667194427e-01
1.199726790462855297e-01
5.840653625677399985e-01
2.153381346140808894e+00
2.344287632670056354e+00
-2.210260370819130404e+00
-1.416199259970419178e+00
-7.029190160618603578e-01
-1.095247334389789495e+00
-8.229652281414371329e-01
5.342070435907372294e-01
7.478605620939816623e-01
4.969377203670619636e-01
5.886513450416692717e-01
6.213631136402756328e-01
-2.582681782576267682e-01
-9.900013724494473033e-01
-2.690094013537621120e-01
8.484207462482519224e-01
6.096739277374272348e-01
9.594076271857524540e-01
1.083146636656461270e+00
1.763985611863498004e+00
2.736872452730325200e+00
2.427081308791282588e+00
2.077293961401225353e+00
-2.366163211619525253e+00
-2.974220311448632525e+00
2.653686962585855902e+00
2.429619866104306247e+00
2.356401930369333542e+00
2.283971355015082860e+00
-2.402839270204963462e+00
-1.359081309299961182e+00
-2.771737010427321124e+00
2.744869733059662753e+00
2.181510169120273179e+00
2.653196838605915708e+00
-2.589885927776271579e+00
-2.411780889590258159e+00
2.796035313099153985e+00
1.175287634644988977e+00
2.212776661787566823e+00
2.454058502630157346e+00
2.385819214457078452e+00
2.903174461065119338e+00
2.652271682287937971e+00
2.197005549876795971e+00
2.593741553636486508e+00
7.069427606950672294e-01
1.345971130965147866e+00
2.002793866871757977e+00
1.476065049388294748e+00
7.627920316857663696e-01
-5.317200160094568417e-01
-6.565254256783520370e-01
5.096651992409584331e-01
1.059936131642858159e+00
7.974198355632849955e-01
7.597080146357190200e-01
-1.240146776885177271e+00
1.368255512124194606e-01
-6.086785299555420581e-01
-4.971622786079835099e-01
-1.157818590130996306e+00
-2.081611672219457476e-01
-1.235519076360606539e+00
-9.305671589214631334e-01
8.095433813734015382e-01
5.675250604218260442e-01
6.480089612263718601e-01
8.689843550804615679e-01
4.706373483597584562e-01
1.562580930586146832e-01
5.121282262657932405e-01
8.465490851924167837e-01
7.382300353355069067e-01
7.164078566458393915e-01
4.297342403701819302e-01
4.182843708664544247e-01
3.180479055823153822e-01
2.626714125450593684e+00
3.044376283185353582e+00
2.850017175606565090e+00
2.201032526412896484e+00
2.239748545116809542e+00
3.035426304439075906e+00
2.309415016251883834e+00
2.237699770929013177e+00
2.614013080108390952e+00
2.210529821624604985e+00
2.349816862662885697e+00
2.561050124305019438e+00
2.228665470311214758e+00
1.352801457287693632e+00
2.053743731288305785e+00
2.997242912671929105e+00
1.986894677561853895e+00
2.359271518805032386e+00
2.112311629927111412e+00
2.375083086049460945e+00
2.155130621513914324e+00
-2.751400251718628898e+00
3.124284533354261928e+00
2.902964643645936427e+00
2.578524115237883052e+00
2.312799382002522997e+00
2.147023180431106848e+00
2.064392283464171030e+00
-2.650284859718167851e+00
2.869380564195791905e+00
2.645434512937652638e+00
2.866658112262642888e+00
-2.529074899009697841e+00
-6.194676915438314113e-01
-3.328493927981971551e-02
8.757009229327085142e-01
5.274393638110019822e-01
-1.136693982977299011e-01
5.429430802141913537e-01
1.151323542505649389e+00
7.990679791893635642e-01
9.927257181467487035e-01
5.709424577344081042e-01
7.959233340786170396e-01
4.513923209162700179e-01
1.779665955880287198e+00
2.301407611489425520e+00
1.672496402509197733e+00
2.956385455674342744e+00
2.476066545280961151e+00
2.461791905963465421e+00
2.571439936257060133e+00
1.989443994267137583e+00
3.087075817315728110e-01
2.859367182208093494e-01
3.685623231292513013e-01
9.259861804046031208e-01
3.149052164037532964e-01
2.854462481031533327e-01
8.283372995261271132e-01
-6.229285764945422521e-01
6.697423669490075449e-02
5.471252429496451519e-01
7.979088006923527043e-01
7.165631197200729163e-01
8.028220937223916609e-01
3.424095774332645559e-01
4.474589862040759813e-01
-8.652042532987428425e-01
-9.626520065509592827e-01
1.018975769882227045e+00
2.475307724540306786e+00
2.415436620178818661e+00
2.106019344436572460e+00
2.017000011678448779e+00
2.181189523253149076e+00
2.376981014968780226e+00
3.031283640428390047e+00
2.663884179476082803e+00
2.337393042799831733e+00
2.107071182036919677e+00
2.693319768692125304e+00
-2.427955831823894961e+00
2.652913241794326193e+00
2.393671304683957057e+00
2.610497354671886150e+00
2.380122232778849600e+00
2.736965272758715706e+00
2.380812729533727357e+00
2.271305471004552157e+00
2.926963334139769835e+00
2.733608879417152693e+00
2.492793454005202580e+00
2.347823006559170533e+00
2.950710067312781515e+00
-2.144674688343052527e+00
-2.110457133753727454e+00
-2.501371320973375223e+00
2.459708567481243779e+00
2.420823009542358850e+00
1.771366490135932503e+00
2.609873578269600536e+00
2.416986653255221107e+00
2.233005438259368702e+00
2.950080421131493491e+00
2.595711788095578676e+00
2.117530187533327002e+00
2.257224100930277810e+00
2.794792397915608184e+00
2.929321485054577678e+00
2.503003529454924436e+00
2.838415566754716401e+00
-2.362103879761884517e+00
2.539253872085274200e+00
1.948175379624441872e+00
-2.520635009438743523e+00
2.612726919271692427e+00
2.539938761350056584e+00
2.014207540591547829e+00
2.519991168393615144e+00
2.233238801931779705e+00
2.398518398249015249e+00
2.360418394852396684e+00
2.007106834378513227e+00
1.997741844210157103e+00
2.283608875551570438e+00
-2.822073923561488673e+00
-2.897801228315795896e+00
-2.615272049198218429e+00
2.883001867450689648e+00
-2.341157098645672452e+00
-2.755626968789861575e+00
-2.813204977380654448e+00
2.668814892556114149e+00
2.493024141371738001e+00
-2.627722118565364084e+00
-2.852650239802827503e+00
2.356345196919254370e+00
2.026399435065759924e+00
2.102231158927762245e+00
2.818890242723746109e+00
2.310974860079949789e+00
2.146203135207442436e+00
3.640771754696762175e-01
-9.137354608008984025e-01
6.767627011210141097e-01
5.832328779531308349e-01
8.322532268639143416e-01
8.678065431245595152e-01
5.252501354781304865e-01
9.678213796246889489e-01
9.305154976060032723e-01
