-7.790399999999999991e+00
-7.957600000000000229e+00
-8.023300000000000765e+00
-7.698100000000000165e+00
-8.216200000000000614e+00
-8.237299999999999400e+00
-8.074899999999999523e+00
-8.319300000000000139e+00
-7.790499999999999758e+00
-8.012900000000000134e+00
-8.104599999999999582e+00
-7.790700000000000180e+00
-8.477800000000000225e+00
-7.857300000000000395e+00
-8.161899999999999267e+00
-7.837200000000000166e+00
-7.924299999999999677e+00
-7.764899999999999913e+00
-7.623499999999999943e+00
-8.354699999999999349e+00
-8.086299999999999599e+00
-7.672600000000000087e+00
-7.874399999999999622e+00
-8.006399999999999295e+00
-7.785400000000000098e+00
-7.799800000000000288e+00
-7.932900000000000063e+00
-8.118600000000000705e+00
-7.697499999999999787e+00
-8.011799999999999145e+00
-7.756000000000000227e+00
-8.389799999999999258e+00
-8.026799999999999713e+00
-7.900800000000000267e+00
-8.084300000000000708e+00
-8.038299999999999557e+00
-8.199600000000000222e+00
-7.918300000000000338e+00
-7.964299999999999713e+00
-8.011300000000000310e+00
-7.876299999999999635e+00
-8.150000000000000355e+00
-7.644099999999999895e+00
-7.977800000000000225e+00
-8.180600000000000094e+00
-8.240199999999999747e+00
-7.793599999999999639e+00
-8.060100000000000264e+00
-7.835399999999999920e+00
-7.860999999999999766e+00
-8.147600000000000620e+00
-7.772499999999999964e+00
-8.515000000000000568e+00
-8.010300000000000864e+00
-8.509999999999999787e+00
-7.869600000000000151e+00
-7.742600000000000371e+00
-7.793400000000000105e+00
-8.401099999999999568e+00
-7.799699999999999633e+00
-7.890799999999999592e+00
-7.944300000000000139e+00
-7.822000000000000064e+00
-8.290699999999999292e+00
-8.182499999999999218e+00
-7.916599999999999859e+00
-7.848200000000000287e+00
-7.919699999999999740e+00
-7.546299999999999564e+00
-7.874500000000000277e+00
-7.697600000000000442e+00
-8.445299999999999585e+00
-7.971199999999999619e+00
-7.863599999999999923e+00
-7.704600000000000115e+00
-7.827099999999999724e+00
-7.868199999999999861e+00
-7.899600000000000399e+00
-7.894400000000000084e+00
-7.874900000000000233e+00
-8.043599999999999639e+00
-8.487899999999999778e+00
-8.019500000000000739e+00
-8.134900000000000020e+00
-8.000500000000000611e+00
-7.790499999999999758e+00
-7.547299999999999898e+00
-8.010799999999999699e+00
-7.855299999999999727e+00
-8.323700000000000543e+00
-7.872899999999999565e+00
-7.855400000000000382e+00
-7.703000000000000291e+00
-8.405599999999999739e+00
-8.108700000000000685e+00
-8.037800000000000722e+00
-8.109500000000000597e+00
-8.033599999999999852e+00
-8.156000000000000583e+00
-8.010999999999999233e+00
-7.841499999999999915e+00
-8.310200000000000031e+00
-7.770800000000000374e+00
-7.759999999999999787e+00
-7.371000000000000441e+00
-8.083000000000000185e+00
-7.737000000000000099e+00
-7.945400000000000240e+00
-7.954299999999999926e+00
-7.715099999999999625e+00
-7.821399999999999686e+00
-7.959800000000000431e+00
-8.194200000000000372e+00
-8.108800000000000452e+00
-8.340299999999999159e+00
-8.337500000000000355e+00
-8.273999999999999133e+00
-7.660199999999999676e+00
-7.940100000000000158e+00
-8.179500000000000881e+00
-8.286799999999999500e+00
-8.347899999999999210e+00
-8.494600000000000151e+00
-8.002700000000000813e+00
-7.765600000000000058e+00
-7.887900000000000134e+00
-7.894499999999999851e+00
-8.122799999999999798e+00
-8.227399999999999380e+00
-7.839900000000000091e+00
-8.431800000000000850e+00
-7.810900000000000176e+00
-7.683600000000000207e+00
-8.242399999999999949e+00
-7.945599999999999774e+00
-8.185399999999999565e+00
-7.780100000000000016e+00
-7.862599999999999589e+00
-8.267699999999999605e+00
-7.635799999999999699e+00
-7.877399999999999736e+00
-7.848399999999999821e+00
-7.648500000000000298e+00
-7.793099999999999916e+00
-7.662899999999999601e+00
-8.090199999999999392e+00
-7.932299999999999685e+00
-8.029199999999999449e+00
-8.237800000000000011e+00
-8.139099999999999113e+00
-8.054500000000000881e+00
-8.076299999999999812e+00
-7.877600000000000158e+00
-8.198100000000000165e+00
-7.703400000000000247e+00
-7.817599999999999660e+00
-7.904600000000000293e+00
-7.938399999999999679e+00
-7.777499999999999858e+00
-7.980699999999999683e+00
-8.532500000000000639e+00
-8.397100000000000009e+00
-8.194300000000000139e+00
-8.003600000000000492e+00
-8.376599999999999824e+00
-7.743100000000000094e+00
-8.179000000000000270e+00
-7.648299999999999876e+00
-7.913100000000000023e+00
-7.857199999999999740e+00
-7.693699999999999761e+00
-8.156700000000000728e+00
-8.007300000000000750e+00
-7.785499999999999865e+00
-7.663499999999999979e+00
-8.054199999999999804e+00
-7.951800000000000423e+00
-8.414300000000000779e+00
-7.818900000000000183e+00
-7.489700000000000024e+00
-7.842200000000000060e+00
-7.766799999999999926e+00
-7.700000000000000178e+00
-8.367100000000000648e+00
-8.070000000000000284e+00
-7.821699999999999875e+00
-8.058699999999999974e+00
-7.955099999999999838e+00
-8.336499999999999133e+00
-8.123900000000000787e+00
-8.356799999999999784e+00
-7.695000000000000284e+00
-7.829699999999999882e+00
-7.865300000000000402e+00
-7.817800000000000082e+00
-7.713899999999999757e+00
-7.835799999999999876e+00
-8.123599999999999710e+00
-7.976300000000000168e+00
-7.923000000000000043e+00
-7.806600000000000428e+00
-8.093099999999999739e+00
-7.669400000000000439e+00
-7.778699999999999726e+00
-7.623999999999999666e+00
-8.523799999999999599e+00
-7.807999999999999829e+00
-8.407899999999999707e+00
-7.981900000000000439e+00
-8.166299999999999670e+00
-7.705000000000000071e+00
-7.807800000000000296e+00
-8.137600000000000833e+00
-7.956400000000000361e+00
-7.880799999999999805e+00
-8.006199999999999761e+00
-7.751999999999999780e+00
-8.432100000000000151e+00
-7.978200000000000180e+00
-8.106999999999999318e+00
-7.813399999999999679e+00
-7.930100000000000371e+00
-8.053100000000000591e+00
-7.976600000000000357e+00
-7.780599999999999739e+00
-7.787899999999999601e+00
-7.779899999999999594e+00
-8.161400000000000432e+00
-8.105399999999999494e+00
-8.083899999999999864e+00
-7.763799999999999812e+00
-7.705099999999999838e+00
-7.761400000000000077e+00
-7.886499999999999844e+00
-7.780499999999999972e+00
-7.737300000000000288e+00
-7.833000000000000185e+00
-8.004899999999999238e+00
-8.278600000000000847e+00
-7.872399999999999842e+00
-7.523699999999999832e+00
-8.385999999999999233e+00
-7.741100000000000314e+00
-7.700599999999999667e+00
-7.841800000000000104e+00
-7.964400000000000368e+00
-7.812899999999999956e+00
-7.823900000000000077e+00
-8.325799999999999201e+00
-8.278200000000000003e+00
-7.840499999999999581e+00
-7.829600000000000115e+00
-7.703199999999999825e+00
-8.248400000000000176e+00
-7.875899999999999679e+00
-7.621599999999999930e+00
-7.724099999999999966e+00
-8.375000000000000000e+00
-7.795799999999999841e+00
-7.764999999999999680e+00
-8.177400000000000446e+00
-7.800500000000000433e+00
-7.759900000000000020e+00
-8.007099999999999440e+00
-7.626100000000000101e+00
-8.296400000000000219e+00
-7.631599999999999717e+00
-7.954600000000000115e+00
-7.878599999999999604e+00
-7.931499999999999773e+00
-7.792699999999999960e+00
-7.815800000000000303e+00
-8.316200000000000259e+00
-7.741600000000000037e+00
-7.875700000000000145e+00
-8.167600000000000193e+00
-7.998199999999999754e+00
-8.086399999999999366e+00
-7.726200000000000401e+00
-8.358700000000000685e+00
-8.038600000000000634e+00
-7.813500000000000334e+00
-8.191200000000000259e+00
-7.666999999999999815e+00
-8.385799999999999699e+00
-7.868900000000000006e+00
-8.080500000000000682e+00
-7.745400000000000063e+00
-8.085300000000000153e+00
-7.891000000000000014e+00
-7.837200000000000166e+00
-8.073399999999999466e+00
-7.984600000000000364e+00
-8.090299999999999159e+00
-7.975500000000000256e+00
-7.893900000000000361e+00
-7.886800000000000033e+00
-7.695500000000000007e+00
-7.978600000000000136e+00
-7.673399999999999999e+00
-7.903200000000000003e+00
-8.014499999999999957e+00
-8.053599999999999426e+00
-7.969199999999999839e+00
-8.080399999999999139e+00
-8.615899999999999892e+00
-8.015900000000000247e+00
-8.473200000000000287e+00
-7.998099999999999987e+00
-8.122799999999999798e+00
-8.062900000000000844e+00
-8.038700000000000401e+00
-7.806199999999999584e+00
-8.010300000000000864e+00
-8.186199999999999477e+00
-7.787499999999999645e+00
-7.900100000000000122e+00
-7.768799999999999706e+00
-7.827499999999999680e+00
-7.998199999999999754e+00
-7.550200000000000244e+00
-7.786900000000000155e+00
-7.849400000000000155e+00
-7.630600000000000271e+00
-8.606500000000000483e+00
-7.894000000000000128e+00
-7.893699999999999939e+00
-8.066700000000000870e+00
-7.767299999999999649e+00
-8.463400000000000034e+00
-8.401999999999999247e+00
-7.817800000000000082e+00
-7.812500000000000000e+00
-8.337699999999999889e+00
-8.194000000000000838e+00
-8.042999999999999261e+00
-7.735100000000000087e+00
-7.834699999999999775e+00
-8.081099999999999284e+00
-7.725200000000000067e+00
-8.300800000000000622e+00
-8.011300000000000310e+00
-8.075200000000000600e+00
-7.917399999999999771e+00
-8.050200000000000244e+00
-7.911699999999999733e+00
-7.644099999999999895e+00
-8.088900000000000645e+00
-7.863900000000000112e+00
-8.257099999999999440e+00
-7.863900000000000112e+00
-7.864399999999999835e+00
-7.821900000000000297e+00
-7.898799999999999599e+00
-7.894099999999999895e+00
-7.658999999999999808e+00
-8.141999999999999460e+00
-7.843499999999999694e+00
-7.852000000000000313e+00
-8.274200000000000443e+00
-7.615700000000000358e+00
-7.591700000000000337e+00
-7.739499999999999602e+00
-7.939600000000000435e+00
-8.035099999999999909e+00
-8.495499999999999829e+00
-8.029899999999999594e+00
-7.872700000000000031e+00
-7.898299999999999876e+00
-7.976600000000000357e+00
-8.122899999999999565e+00
-7.790700000000000180e+00
-7.626999999999999780e+00
-7.961500000000000021e+00
-8.049500000000000099e+00
-7.618000000000000327e+00
-7.687100000000000044e+00
-7.980100000000000193e+00
-7.920799999999999841e+00
-7.879599999999999937e+00
-8.246900000000000119e+00
-7.749100000000000321e+00
-7.697899999999999743e+00
-8.266899999999999693e+00
-8.326100000000000279e+00
-8.482699999999999463e+00
-7.499100000000000321e+00
-7.894800000000000040e+00
-7.752799999999999692e+00
-8.507699999999999818e+00
-7.884500000000000064e+00
-7.985100000000000087e+00
-7.596000000000000085e+00
-8.121900000000000119e+00
-7.854800000000000004e+00
-8.227199999999999847e+00
-7.841000000000000192e+00
-7.877699999999999925e+00
-7.775599999999999845e+00
-7.799500000000000099e+00
-7.756499999999999950e+00
-7.770800000000000374e+00
-7.615800000000000125e+00
-8.469200000000000728e+00
-7.838899999999999757e+00
-8.175900000000000389e+00
-7.992600000000000371e+00
-8.178399999999999892e+00
-7.869799999999999685e+00
-7.918700000000000294e+00
-7.964100000000000179e+00
-7.887699999999999712e+00
-7.911699999999999733e+00
-8.179199999999999804e+00
-8.284299999999999997e+00
-7.838599999999999568e+00
-7.621500000000000163e+00
-7.645500000000000185e+00
-8.260799999999999699e+00
-7.926999999999999602e+00
-7.884900000000000020e+00
-8.228300000000000836e+00
-7.874600000000000044e+00
-7.608699999999999797e+00
-8.376899999999999125e+00
-8.294700000000000628e+00
-7.968700000000000117e+00
-8.375999999999999446e+00
-7.755799999999999805e+00
-8.242599999999999483e+00
-8.032400000000000873e+00
-7.885200000000000209e+00
-7.765500000000000291e+00
-8.086399999999999366e+00
-7.697799999999999976e+00
-8.342599999999999127e+00
-7.862000000000000099e+00
-8.456099999999999284e+00
-8.099700000000000344e+00
-8.517300000000000537e+00
-8.041900000000000048e+00
-7.793800000000000061e+00
-8.144899999999999807e+00
-7.717299999999999827e+00
-7.774499999999999744e+00
-8.215500000000000469e+00
-7.767699999999999605e+00
-7.618299999999999628e+00
-7.922200000000000131e+00
-8.166999999999999815e+00
-7.910599999999999632e+00
-7.801300000000000345e+00
-8.025399999999999423e+00
-7.969699999999999562e+00
-8.120599999999999596e+00
-8.317199999999999704e+00
-8.213499999999999801e+00
-8.185900000000000176e+00
-7.642400000000000304e+00
-7.763600000000000279e+00
-8.022100000000000009e+00
-8.086999999999999744e+00
-7.863199999999999967e+00
-7.710700000000000109e+00
-8.012600000000000833e+00
-8.374599999999999156e+00
-8.245400000000000063e+00
-8.410999999999999588e+00
-7.858200000000000074e+00
-7.817300000000000360e+00
-8.171300000000000452e+00
-8.103400000000000603e+00
-7.867899999999999672e+00
-7.998300000000000409e+00
-8.278900000000000148e+00
-8.417699999999999960e+00
-7.888399999999999856e+00
-7.773100000000000342e+00
-7.580300000000000260e+00
-7.862899999999999778e+00
-7.727599999999999802e+00
-8.028399999999999537e+00
-7.688299999999999912e+00
-8.351200000000000401e+00
-8.274100000000000676e+00
-7.767000000000000348e+00
-8.177699999999999747e+00
-7.943599999999999994e+00
-7.823000000000000398e+00
-7.742499999999999716e+00
-7.915300000000000225e+00
-7.787700000000000067e+00
-8.016500000000000625e+00
-7.959200000000000053e+00
-7.777099999999999902e+00
-8.532899999999999707e+00
-7.821100000000000385e+00
-8.132400000000000517e+00
-8.009999999999999787e+00
-7.842500000000000249e+00
-7.893500000000000405e+00
-7.919500000000000206e+00
-7.908400000000000318e+00
-8.058299999999999130e+00
-7.552399999999999558e+00
-7.655400000000000205e+00
-7.927900000000000169e+00
-8.185499999999999332e+00
-8.554399999999999338e+00
-8.251799999999999358e+00
-8.038199999999999790e+00
-8.305699999999999861e+00
-8.165100000000000691e+00
-7.896600000000000286e+00
-7.745000000000000107e+00
-7.963400000000000034e+00
-7.620700000000000252e+00
-8.375199999999999534e+00
-7.815599999999999881e+00
-7.671400000000000219e+00
-7.785199999999999676e+00
-7.937899999999999956e+00
-7.705599999999999561e+00
-8.487199999999999633e+00
-7.790600000000000414e+00
-8.074999999999999289e+00
-7.896799999999999820e+00
-7.881599999999999717e+00
-7.587799999999999656e+00
-7.802399999999999558e+00
-7.518600000000000172e+00
-8.204299999999999926e+00
-7.853900000000000325e+00
-7.602699999999999569e+00
-7.999799999999999578e+00
-8.446899999999999409e+00
-8.260400000000000631e+00
-7.839199999999999946e+00
-8.006199999999999761e+00
-8.392799999999999372e+00
-7.910999999999999588e+00
-7.803499999999999659e+00
-8.137700000000000600e+00
-8.120900000000000674e+00
-7.946399999999999686e+00
-8.061099999999999710e+00
-8.030300000000000438e+00
-8.204399999999999693e+00
-7.995099999999999874e+00
-7.889300000000000423e+00
-8.099600000000000577e+00
-8.111399999999999721e+00
-8.178900000000000503e+00
-8.097599999999999909e+00
-7.647400000000000198e+00
-8.014599999999999724e+00
-7.703899999999999970e+00
-7.735899999999999999e+00
-7.960899999999999643e+00
-7.916599999999999859e+00
-8.336199999999999832e+00
-8.261100000000000776e+00
-7.937700000000000422e+00
-8.022800000000000153e+00
-7.944899999999999629e+00
-7.892000000000000348e+00
-7.794800000000000395e+00
-7.688200000000000145e+00
-7.705499999999999794e+00
-7.886199999999999655e+00
-8.523400000000000531e+00
-7.952600000000000335e+00
-8.316300000000000026e+00
-8.032000000000000028e+00
-7.696100000000000385e+00
-7.894700000000000273e+00
-7.746000000000000441e+00
-7.811499999999999666e+00
-7.774600000000000399e+00
-8.413100000000000023e+00
-7.896300000000000097e+00
-8.118000000000000327e+00
-8.068199999999999150e+00
-7.988900000000000112e+00
-7.777099999999999902e+00
-7.789600000000000080e+00
-8.169700000000000628e+00
-8.437200000000000699e+00
-7.904899999999999594e+00
-8.468299999999999272e+00
-7.782600000000000406e+00
-7.980599999999999916e+00
-8.420600000000000307e+00
-7.978399999999999714e+00
-8.032899999999999707e+00
-7.812700000000000422e+00
-7.751599999999999824e+00
-7.644199999999999662e+00
-7.947300000000000253e+00
-7.862599999999999589e+00
-7.834900000000000198e+00
-8.162699999999999179e+00
-7.553899999999999615e+00
-8.306300000000000239e+00
-8.069699999999999207e+00
-7.964500000000000135e+00
-7.871199999999999974e+00
-7.577099999999999724e+00
-7.648100000000000342e+00
-7.945000000000000284e+00
-8.088300000000000267e+00
-7.840200000000000280e+00
-7.608399999999999608e+00
-8.055699999999999861e+00
-7.870300000000000296e+00
-8.350500000000000256e+00
-7.986200000000000188e+00
-8.384700000000000486e+00
-8.344900000000000873e+00
-7.733699999999999797e+00
-8.146699999999999164e+00
-7.992700000000000138e+00
-8.110799999999999343e+00
-7.751900000000000013e+00
-8.079299999999999926e+00
-8.083199999999999719e+00
-8.145099999999999341e+00
-8.194599999999999440e+00
-8.514699999999999491e+00
-7.859099999999999753e+00
-8.015200000000000102e+00
-7.861600000000000144e+00
-8.292299999999999116e+00
-7.819399999999999906e+00
-8.052099999999999369e+00
-7.916199999999999903e+00
-8.127000000000000668e+00
-8.178499999999999659e+00
-8.057700000000000529e+00
-7.855800000000000338e+00
-7.722699999999999676e+00
-7.879999999999999893e+00
-8.265499999999999403e+00
-7.597100000000000186e+00
-8.069599999999999440e+00
-7.870499999999999829e+00
-7.770299999999999763e+00
-8.184900000000000730e+00
-7.628999999999999559e+00
-7.959699999999999775e+00
-8.011699999999999378e+00
-8.018599999999999284e+00
-8.236499999999999488e+00
-7.603200000000000180e+00
-7.880600000000000271e+00
-8.022000000000000242e+00
-8.489000000000000767e+00
-8.217100000000000293e+00
-8.020200000000000884e+00
-8.070600000000000662e+00
-8.304299999999999571e+00
-7.717500000000000249e+00
-7.777899999999999814e+00
-7.936700000000000088e+00
-8.092499999999999361e+00
-8.197300000000000253e+00
-7.984399999999999942e+00
-7.915600000000000414e+00
-7.949799999999999756e+00
-7.773399999999999643e+00
-7.650599999999999845e+00
-7.975500000000000256e+00
-7.931000000000000050e+00
-8.223000000000000753e+00
-7.848200000000000287e+00
-7.859200000000000408e+00
-7.987700000000000244e+00
-7.672100000000000364e+00
-8.211800000000000210e+00
-7.682199999999999918e+00
-7.909500000000000419e+00
-7.911500000000000199e+00
-7.915199999999999569e+00
-8.193599999999999994e+00
-7.762299999999999756e+00
-7.809999999999999609e+00
-7.932699999999999640e+00
-8.264499999999999957e+00
-7.739499999999999602e+00
-7.804800000000000182e+00
-7.558500000000000441e+00
-8.093199999999999505e+00
-7.832799999999999763e+00
-8.335499999999999687e+00
-7.961800000000000210e+00
-7.872600000000000264e+00
-7.611399999999999721e+00
-7.788299999999999557e+00
-7.627699999999999925e+00
-7.725399999999999601e+00
-7.803600000000000314e+00
-7.753000000000000114e+00
-7.943900000000000183e+00
-8.061999999999999389e+00
-8.135600000000000165e+00
-8.257999999999999119e+00
-7.794400000000000439e+00
-8.093199999999999505e+00
-8.138700000000000045e+00
-7.813600000000000101e+00
-7.943299999999999805e+00
-8.065300000000000580e+00
-7.792900000000000382e+00
-7.704600000000000115e+00
-8.028999999999999915e+00
-8.445199999999999818e+00
-7.886199999999999655e+00
-7.921400000000000219e+00
-7.791599999999999859e+00
-7.947099999999999831e+00
-8.370599999999999596e+00
-8.021000000000000796e+00
-7.714199999999999946e+00
-8.058299999999999130e+00
-8.012100000000000222e+00
-8.021499999999999631e+00
-8.052599999999999980e+00
-8.120200000000000529e+00
-7.965600000000000236e+00
-7.866900000000000226e+00
-7.972699999999999676e+00
-8.310000000000000497e+00
-8.066900000000000404e+00
-8.056699999999999307e+00
-8.002599999999999270e+00
-8.470900000000000318e+00
-7.925300000000000011e+00
-8.013899999999999579e+00
-7.672200000000000131e+00
-8.369999999999999218e+00
-7.953899999999999970e+00
-8.249499999999999389e+00
-7.724700000000000344e+00
-7.858299999999999841e+00
-7.776500000000000412e+00
-7.774600000000000399e+00
-8.006700000000000372e+00
-7.805500000000000327e+00
-7.986600000000000144e+00
-8.432199999999999918e+00
-8.181100000000000705e+00
-7.844199999999999839e+00
-7.893099999999999561e+00
-7.613999999999999879e+00
-8.153999999999999915e+00
-7.818500000000000227e+00
-7.804499999999999993e+00
-7.898200000000000109e+00
-8.084300000000000708e+00
-7.930799999999999628e+00
-8.003000000000000114e+00
-7.899399999999999977e+00
-7.939400000000000013e+00
-8.445600000000000662e+00
-8.093199999999999505e+00
-7.693299999999999805e+00
-7.955199999999999605e+00
-7.648900000000000254e+00
-7.848700000000000010e+00
-8.043499999999999872e+00
-7.977699999999999569e+00
-8.133699999999999264e+00
-8.068500000000000227e+00
-7.678099999999999703e+00
-8.120900000000000674e+00
-8.154500000000000526e+00
-7.845200000000000173e+00
-7.847000000000000419e+00
-7.777000000000000135e+00
-7.969400000000000261e+00
-8.210900000000000531e+00
-8.173099999999999810e+00
-8.019700000000000273e+00
-8.170400000000000773e+00
-7.907300000000000217e+00
-7.977500000000000036e+00
-7.798700000000000188e+00
-7.832399999999999807e+00
-8.099700000000000344e+00
-7.726899999999999658e+00
-7.945100000000000051e+00
-7.854000000000000092e+00
-7.815599999999999881e+00
-8.010400000000000631e+00
-8.529899999999999594e+00
-7.932699999999999640e+00
-7.735899999999999999e+00
-8.161799999999999500e+00
-7.896799999999999820e+00
-8.058600000000000207e+00
-7.761999999999999567e+00
-8.389200000000000657e+00
-8.244999999999999218e+00
-7.884599999999999831e+00
-7.831800000000000317e+00
-7.762699999999999712e+00
-8.049400000000000333e+00
-7.827399999999999913e+00
-7.769700000000000273e+00
-8.321400000000000574e+00
-7.900299999999999656e+00
-7.995000000000000107e+00
-8.479599999999999582e+00
-7.744500000000000384e+00
-7.742099999999999760e+00
-7.970299999999999940e+00
-7.972000000000000419e+00
-7.834200000000000053e+00
-8.155300000000000438e+00
-8.107900000000000773e+00
-8.119799999999999685e+00
-8.007600000000000051e+00
-7.981300000000000061e+00
-8.604200000000000514e+00
-7.774200000000000443e+00
-7.822899999999999743e+00
-8.248499999999999943e+00
-7.850299999999999834e+00
-7.751000000000000334e+00
-8.074500000000000455e+00
-7.973399999999999821e+00
-8.336299999999999599e+00
-7.939899999999999736e+00
-7.887599999999999945e+00
-7.989399999999999835e+00
-7.829600000000000115e+00
-8.120100000000000762e+00
-8.093600000000000350e+00
-8.138299999999999201e+00
-8.395899999999999253e+00
-7.918999999999999595e+00
-8.218899999999999650e+00
-7.886300000000000310e+00
-8.210699999999999221e+00
-7.958800000000000097e+00
-7.993199999999999861e+00
-7.735699999999999577e+00
-7.689600000000000435e+00
-7.779300000000000104e+00
-7.782899999999999707e+00
-8.232900000000000773e+00
-8.111100000000000421e+00
-8.031499999999999417e+00
-8.150800000000000267e+00
-8.100300000000000722e+00
-8.316900000000000404e+00
-7.767900000000000027e+00
-8.462300000000000821e+00
-8.203300000000000480e+00
-7.911299999999999777e+00
-8.424300000000000566e+00
-7.965099999999999625e+00
-7.723600000000000243e+00
-7.701299999999999812e+00
-7.737700000000000244e+00
-7.979800000000000004e+00
-8.496499999999999275e+00
-8.025900000000000034e+00
-7.799400000000000333e+00
-7.645299999999999763e+00
-8.558299999999999130e+00
-7.834699999999999775e+00
-8.381299999999999528e+00
-7.577200000000000379e+00
-8.217100000000000293e+00
-8.285999999999999588e+00
-7.919900000000000162e+00
-8.445000000000000284e+00
-7.734600000000000364e+00
-7.516300000000000203e+00
-8.013199999999999434e+00
-8.199600000000000222e+00
-7.937800000000000189e+00
-8.144500000000000739e+00
-8.060000000000000497e+00
-8.401999999999999247e+00
-7.994900000000000340e+00
-8.142599999999999838e+00
-7.963499999999999801e+00
-8.167799999999999727e+00
-7.640900000000000247e+00
-8.065400000000000347e+00
-7.729800000000000004e+00
-7.624500000000000277e+00
-8.165499999999999758e+00
-8.398099999999999454e+00
-7.737899999999999778e+00
-8.287499999999999645e+00
-7.843899999999999650e+00
-7.729000000000000092e+00
-7.983600000000000030e+00
-7.687700000000000422e+00
-7.818200000000000038e+00
-7.809199999999999697e+00
-7.764100000000000001e+00
-8.441700000000000870e+00
-7.783999999999999808e+00
-8.125400000000000844e+00
-7.998400000000000176e+00
-8.111599999999999255e+00
-7.711899999999999977e+00
-7.759599999999999831e+00
-7.907499999999999751e+00
-7.855400000000000382e+00
-7.846499999999999808e+00
-8.240700000000000358e+00
-8.119799999999999685e+00
-7.772700000000000387e+00
-7.715600000000000236e+00
-7.933300000000000018e+00
-7.835300000000000153e+00
-8.134399999999999409e+00
-8.104599999999999582e+00
-7.659600000000000186e+00
-7.696699999999999875e+00
-7.701699999999999768e+00
-8.180799999999999628e+00
-8.033699999999999619e+00
-7.741399999999999615e+00
-7.591199999999999726e+00
-8.004200000000000870e+00
-7.928099999999999703e+00
-7.599199999999999733e+00
-8.095399999999999707e+00
-7.985599999999999810e+00
-8.129099999999999326e+00
-7.936399999999999899e+00
-7.663800000000000168e+00
-7.964400000000000368e+00
-7.430600000000000094e+00
-8.044100000000000250e+00
-8.203099999999999170e+00
-8.340600000000000236e+00
-8.483399999999999608e+00
-7.749900000000000233e+00
-7.942199999999999704e+00
-8.066800000000000637e+00
-7.902999999999999581e+00
-8.077500000000000568e+00
-7.612000000000000099e+00
-7.624900000000000233e+00
-8.125899999999999679e+00
-7.790700000000000180e+00
-7.876400000000000290e+00
-8.211399999999999366e+00
-8.427799999999999514e+00
-7.759800000000000253e+00
-8.341300000000000381e+00
-7.969800000000000217e+00
-8.214800000000000324e+00
-8.036099999999999355e+00
-7.841800000000000104e+00
-7.642400000000000304e+00
-8.197699999999999321e+00
-8.115399999999999281e+00
-7.566300000000000026e+00
-7.703899999999999970e+00
-7.807599999999999874e+00
-8.138500000000000512e+00
-7.914100000000000357e+00
-8.090099999999999625e+00
-8.368000000000000327e+00
-8.018700000000000827e+00
-8.028499999999999304e+00
-7.752200000000000202e+00
-8.162800000000000722e+00
-7.863100000000000200e+00
-7.886000000000000121e+00
-8.282000000000000028e+00
-7.880200000000000315e+00
-8.161599999999999966e+00
-8.162599999999999412e+00
-7.792500000000000426e+00
-7.757600000000000051e+00
-7.828899999999999970e+00
-8.001200000000000756e+00
-8.271800000000000708e+00
-8.134399999999999409e+00
-7.898699999999999832e+00
-8.352100000000000080e+00
-8.070999999999999730e+00
-7.999299999999999855e+00
-8.395500000000000185e+00
-7.596700000000000230e+00
-8.215799999999999770e+00
-7.776900000000000368e+00
-7.753000000000000114e+00
-7.922200000000000131e+00
-8.264400000000000190e+00
-8.498900000000000787e+00
-7.715900000000000425e+00
-8.571799999999999642e+00
-7.776799999999999713e+00
-7.978900000000000325e+00
-8.047399999999999665e+00
-7.791299999999999670e+00
-8.125700000000000145e+00
-8.167799999999999727e+00
-7.697899999999999743e+00
-7.933300000000000018e+00
-7.857099999999999973e+00
-7.783800000000000274e+00
-8.506700000000000372e+00
-7.966499999999999915e+00
-7.851700000000000124e+00
-7.752399999999999736e+00
-7.723099999999999632e+00
-7.951900000000000190e+00
-8.126799999999999358e+00
-7.910000000000000142e+00
-7.874200000000000088e+00
-7.540600000000000414e+00
-8.508200000000000429e+00
-7.888099999999999667e+00
-7.771300000000000097e+00
-8.250299999999999301e+00
-7.897800000000000153e+00
-7.946900000000000297e+00
-7.922200000000000131e+00
-7.883600000000000385e+00
-7.648100000000000342e+00
-7.845600000000000129e+00
-7.854499999999999815e+00
-7.881800000000000139e+00
-7.683300000000000018e+00
-7.853699999999999903e+00
-8.244300000000000850e+00
-8.049500000000000099e+00
-8.131999999999999673e+00
-8.277400000000000091e+00
-8.074600000000000222e+00
-7.903999999999999915e+00
-7.960499999999999687e+00
-7.815800000000000303e+00
-7.919100000000000250e+00
-8.512900000000000134e+00
-8.211100000000000065e+00
-7.661200000000000010e+00
-7.920499999999999652e+00
-8.041700000000000514e+00
-7.780199999999999783e+00
-7.856900000000000439e+00
-7.748899999999999899e+00
-8.064299999999999358e+00
-8.391199999999999548e+00
-8.047000000000000597e+00
-7.810500000000000220e+00
-7.767100000000000115e+00
-7.640799999999999592e+00
-7.982700000000000351e+00
-7.586299999999999599e+00
-7.602899999999999991e+00
-7.730999999999999872e+00
-7.942199999999999704e+00
-7.948400000000000354e+00
-7.735299999999999621e+00
-7.773799999999999599e+00
-7.710099999999999731e+00
-7.993400000000000283e+00
-8.415599999999999525e+00
-7.975299999999999834e+00
-8.245799999999999130e+00
-8.399599999999999511e+00
-8.003999999999999559e+00
-8.200100000000000833e+00
-8.399499999999999744e+00
-7.868999999999999773e+00
-8.455199999999999605e+00
-7.753499999999999837e+00
-7.800399999999999778e+00
-8.022999999999999687e+00
-8.157999999999999474e+00
-7.736799999999999677e+00
-8.290499999999999758e+00
-7.876800000000000246e+00
-7.720699999999999896e+00
-8.107900000000000773e+00
-8.578699999999999548e+00
-7.865199999999999747e+00
-8.009199999999999875e+00
-8.028900000000000148e+00
-7.986500000000000377e+00
-7.893099999999999561e+00
-7.895299999999999763e+00
-7.856200000000000294e+00
-7.581000000000000405e+00
-7.810100000000000264e+00
-8.255000000000000782e+00
-7.818699999999999761e+00
-8.275000000000000355e+00
-8.537800000000000722e+00
-7.853600000000000136e+00
-7.985299999999999621e+00
-8.355399999999999494e+00
-7.712100000000000399e+00
-7.614300000000000068e+00
-7.809599999999999653e+00
-7.921000000000000263e+00
-7.800300000000000011e+00
-7.526200000000000223e+00
-7.834200000000000053e+00
-7.944300000000000139e+00
-7.937899999999999956e+00
-8.311700000000000088e+00
-7.572899999999999743e+00
-8.084600000000000009e+00
-7.940500000000000114e+00
-8.078300000000000480e+00
-8.224399999999999267e+00
-8.034399999999999764e+00
-7.807599999999999874e+00
-7.800600000000000200e+00
-8.544800000000000395e+00
-8.077400000000000801e+00
-7.657499999999999751e+00
-7.670499999999999652e+00
-7.831000000000000405e+00
-8.133200000000000429e+00
-7.682000000000000384e+00
-8.204800000000000537e+00
-7.966199999999999726e+00
-8.111599999999999255e+00
-7.790000000000000036e+00
-8.040499999999999758e+00
-7.997200000000000308e+00
-7.713199999999999612e+00
-7.963700000000000223e+00
-8.398199999999999221e+00
-7.744100000000000428e+00
-8.031800000000000495e+00
-7.650699999999999612e+00
-8.049500000000000099e+00
-8.166000000000000369e+00
-7.519599999999999618e+00
-7.990499999999999936e+00
-7.878400000000000070e+00
-7.784299999999999997e+00
-8.020899999999999253e+00
-7.657300000000000217e+00
-7.833899999999999864e+00
-7.780000000000000249e+00
-7.948500000000000121e+00
-7.932299999999999685e+00
-8.148600000000000065e+00
-8.246399999999999508e+00
-7.880300000000000082e+00
-8.022999999999999687e+00
-8.464700000000000557e+00
-8.047399999999999665e+00
-7.874200000000000088e+00
-7.762599999999999945e+00
-7.972100000000000186e+00
-8.040800000000000836e+00
-8.018700000000000827e+00
-7.793499999999999872e+00
-8.429500000000000881e+00
-7.738299999999999734e+00
-7.716499999999999915e+00
-7.532000000000000028e+00
-7.812899999999999956e+00
-7.978500000000000369e+00
-7.731399999999999828e+00
-7.677599999999999980e+00
-7.574699999999999989e+00
-8.066800000000000637e+00
-8.313299999999999912e+00
-7.761899999999999800e+00
-8.014599999999999724e+00
-7.627299999999999969e+00
-8.064099999999999824e+00
-7.691600000000000215e+00
-8.129200000000000870e+00
-7.821500000000000341e+00
-7.889000000000000234e+00
-7.873300000000000409e+00
-8.124900000000000233e+00
-8.382300000000000750e+00
-7.472000000000000419e+00
-8.436500000000000554e+00
-8.019000000000000128e+00
-8.039099999999999469e+00
-8.226300000000000168e+00
-7.577600000000000335e+00
-7.695899999999999963e+00
-8.039899999999999380e+00
-8.087699999999999889e+00
-8.047599999999999199e+00
-8.520500000000000185e+00
-8.136699999999999378e+00
-8.191399999999999793e+00
-8.021200000000000330e+00
-8.277300000000000324e+00
-8.540300000000000225e+00
-7.954100000000000392e+00
-7.779200000000000337e+00
-7.948500000000000121e+00
-7.869500000000000384e+00
-7.719199999999999839e+00
-8.112299999999999400e+00
-7.907000000000000028e+00
-7.939600000000000435e+00
-7.833999999999999631e+00
-8.023199999999999221e+00
-8.395200000000000884e+00
-7.861600000000000144e+00
-7.831999999999999851e+00
-7.756899999999999906e+00
-8.028800000000000381e+00
-8.167799999999999727e+00
-7.706000000000000405e+00
-7.827700000000000102e+00
-7.614899999999999558e+00
-8.257099999999999440e+00
-7.924999999999999822e+00
-8.226000000000000867e+00
-7.889100000000000001e+00
-7.780800000000000161e+00
-8.182299999999999685e+00
-7.840700000000000003e+00
-8.301500000000000767e+00
-8.273099999999999454e+00
-8.128500000000000725e+00
-7.808600000000000207e+00
-8.378000000000000114e+00
-8.304299999999999571e+00
-7.882299999999999862e+00
-8.102199999999999847e+00
-7.643699999999999939e+00
-8.551899999999999835e+00
-8.025000000000000355e+00
-7.790600000000000414e+00
-7.947000000000000064e+00
-7.808399999999999785e+00
-7.616699999999999804e+00
-7.978699999999999903e+00
-8.339299999999999713e+00
-7.896099999999999675e+00
-7.852999999999999758e+00
-7.973200000000000287e+00
-7.998599999999999710e+00
-8.034200000000000230e+00
-8.174599999999999866e+00
-7.818900000000000183e+00
-7.914699999999999847e+00
-7.837500000000000355e+00
-7.825400000000000134e+00
-8.146699999999999164e+00
-7.850399999999999601e+00
-7.724999999999999645e+00
-8.142099999999999227e+00
-7.685900000000000176e+00
-7.970299999999999940e+00
-8.336000000000000298e+00
-8.040200000000000458e+00
-7.839100000000000179e+00
-8.068899999999999295e+00
-7.750099999999999767e+00
-7.919200000000000017e+00
-8.320299999999999585e+00
-7.850600000000000023e+00
-7.693800000000000416e+00
-8.387299999999999756e+00
-8.394299999999999429e+00
-8.193099999999999383e+00
-8.500099999999999767e+00
-8.120100000000000762e+00
-8.171799999999999287e+00
-7.917600000000000193e+00
-7.910999999999999588e+00
-8.403299999999999770e+00
-7.990800000000000125e+00
-7.722400000000000375e+00
-7.885600000000000165e+00
-8.290699999999999292e+00
-8.288500000000000867e+00
-8.002599999999999270e+00
-7.972800000000000331e+00
-7.803099999999999703e+00
-8.254300000000000637e+00
-8.067000000000000171e+00
-7.761499999999999844e+00
-7.843200000000000394e+00
-8.102800000000000225e+00
-7.781799999999999606e+00
-8.182000000000000384e+00
-8.161699999999999733e+00
-7.822400000000000020e+00
-8.144299999999999429e+00
-7.923799999999999955e+00
-7.927699999999999747e+00
-8.366600000000000037e+00
-7.795099999999999696e+00
-8.385199999999999321e+00
-7.903800000000000381e+00
-7.740400000000000169e+00
-8.227899999999999991e+00
-8.137399999999999523e+00
-8.046400000000000219e+00
-7.668000000000000149e+00
-8.487999999999999545e+00
-8.088200000000000500e+00
-7.745400000000000063e+00
-8.433699999999999974e+00
-8.204299999999999926e+00
-8.191100000000000492e+00
-7.841099999999999959e+00
-7.839800000000000324e+00
-7.814799999999999969e+00
-7.869200000000000195e+00
-7.890299999999999869e+00
-8.256500000000000838e+00
-8.099600000000000577e+00
-7.907499999999999751e+00
-7.865800000000000125e+00
-8.184499999999999886e+00
-7.790700000000000180e+00
-7.762199999999999989e+00
-7.627900000000000347e+00
-8.065200000000000813e+00
-8.174099999999999255e+00
-8.177199999999999136e+00
-7.677699999999999747e+00
-8.653999999999999915e+00
-7.565400000000000347e+00
-7.884400000000000297e+00
-7.668800000000000061e+00
-8.399599999999999511e+00
-7.665199999999999569e+00
-7.687700000000000422e+00
-7.887400000000000411e+00
-7.745199999999999640e+00
-7.936399999999999899e+00
-7.793800000000000061e+00
-8.109199999999999520e+00
-7.826100000000000279e+00
-7.999500000000000277e+00
-7.687000000000000277e+00
-8.041499999999999204e+00
-7.711299999999999599e+00
-8.043900000000000716e+00
-8.300399999999999778e+00
-7.796800000000000175e+00
-7.630300000000000082e+00
-8.372700000000000031e+00
-7.825300000000000367e+00
-7.770500000000000185e+00
-7.639000000000000234e+00
-8.189000000000000057e+00
-8.301700000000000301e+00
-8.106799999999999784e+00
-7.969199999999999839e+00
-7.848399999999999821e+00
-8.250099999999999767e+00
-7.732800000000000118e+00
-7.764300000000000423e+00
-7.986699999999999910e+00
-7.976499999999999702e+00
-7.671000000000000263e+00
-8.051600000000000534e+00
-7.490099999999999980e+00
-7.794699999999999740e+00
-7.696500000000000341e+00
-7.615000000000000213e+00
-7.985400000000000276e+00
-7.684099999999999930e+00
-7.907899999999999707e+00
-7.949699999999999989e+00
-7.889899999999999913e+00
-7.795700000000000074e+00
-7.769199999999999662e+00
-7.827099999999999724e+00
-7.736600000000000144e+00
-8.429700000000000415e+00
-7.867099999999999760e+00
-8.207800000000000651e+00
-8.268000000000000682e+00
-7.858500000000000263e+00
-7.990999999999999659e+00
-8.257999999999999119e+00
-7.836999999999999744e+00
-7.998199999999999754e+00
-8.275700000000000500e+00
-8.362500000000000711e+00
-7.971300000000000274e+00
-7.809099999999999930e+00
-8.209300000000000708e+00
-7.967299999999999827e+00
-7.759199999999999875e+00
-8.043900000000000716e+00
-8.344300000000000495e+00
-7.831100000000000172e+00
-7.655000000000000249e+00
-7.809499999999999886e+00
-7.945199999999999818e+00
-7.770500000000000185e+00
-8.026600000000000179e+00
-7.528200000000000003e+00
-8.349500000000000810e+00
-8.111399999999999721e+00
-8.081500000000000128e+00
-8.143599999999999284e+00
-7.915399999999999991e+00
-7.788000000000000256e+00
-7.738299999999999734e+00
-8.080099999999999838e+00
-8.495599999999999596e+00
-7.957699999999999996e+00
-7.646300000000000097e+00
-8.187400000000000233e+00
-7.877600000000000158e+00
-7.785499999999999865e+00
-7.771300000000000097e+00
-8.410099999999999909e+00
-7.667500000000000426e+00
-7.996999999999999886e+00
-7.818900000000000183e+00
-8.504899999999999238e+00
-8.223499999999999588e+00
-7.970600000000000129e+00
-7.834100000000000286e+00
-8.392200000000000770e+00
-8.150299999999999656e+00
-8.473200000000000287e+00
-8.110300000000000509e+00
-8.199099999999999611e+00
-7.841300000000000381e+00
-8.023500000000000298e+00
-7.830799999999999983e+00
-7.870499999999999829e+00
-7.769800000000000040e+00
-7.941699999999999982e+00
-7.771499999999999631e+00
-7.627200000000000202e+00
-7.588400000000000034e+00
-7.731600000000000250e+00
-8.133300000000000196e+00
-8.519700000000000273e+00
-8.054999999999999716e+00
-7.938699999999999868e+00
-8.224899999999999878e+00
-8.276099999999999568e+00
-7.753599999999999604e+00
-8.107599999999999696e+00
-7.792300000000000004e+00
-7.993000000000000327e+00
-8.320199999999999818e+00
-8.005100000000000549e+00
-7.912499999999999645e+00
-7.988599999999999923e+00
-7.790099999999999802e+00
-8.660500000000000753e+00
-8.106999999999999318e+00
-7.926499999999999879e+00
-7.993500000000000050e+00
-7.948299999999999699e+00
-8.363099999999999312e+00
-8.224800000000000111e+00
-8.297900000000000276e+00
-7.774899999999999700e+00
-7.771799999999999820e+00
-7.894300000000000317e+00
-7.859399999999999942e+00
-8.092499999999999361e+00
-7.949900000000000411e+00
-8.204499999999999460e+00
-8.423400000000000887e+00
-8.204599999999999227e+00
-7.692199999999999704e+00
-8.224399999999999267e+00
-8.466699999999999449e+00
-8.508800000000000807e+00
-8.324099999999999611e+00
-7.704100000000000392e+00
-7.818500000000000227e+00
-7.760299999999999976e+00
-8.055799999999999628e+00
-8.169100000000000250e+00
-7.924199999999999910e+00
-7.702499999999999680e+00
-8.000700000000000145e+00
-7.668800000000000061e+00
-8.120900000000000674e+00
-7.981700000000000017e+00
-7.894300000000000317e+00
-8.284399999999999764e+00
-8.250500000000000611e+00
-7.925500000000000433e+00
-7.783000000000000362e+00
-7.817000000000000171e+00
-7.666299999999999670e+00
-7.782600000000000406e+00
-7.679800000000000182e+00
-8.552899999999999281e+00
-7.946399999999999686e+00
-8.563599999999999213e+00
-7.567800000000000082e+00
-7.729099999999999859e+00
-8.304899999999999949e+00
-8.430799999999999628e+00
-7.939400000000000013e+00
-7.889100000000000001e+00
-7.884699999999999598e+00
-8.216599999999999682e+00
-8.081899999999999196e+00
-8.023899999999999366e+00
-7.940199999999999925e+00
-8.388899999999999579e+00
-7.743199999999999861e+00
-7.798899999999999721e+00
-8.206400000000000361e+00
-8.033899999999999153e+00
-8.252299999999999969e+00
-8.095599999999999241e+00
-7.813699999999999868e+00
-8.025000000000000355e+00
-7.853299999999999947e+00
-7.675900000000000389e+00
-8.050300000000000011e+00
-7.953599999999999781e+00
-8.092299999999999827e+00
-8.383699999999999264e+00
-7.964599999999999902e+00
-7.954600000000000115e+00
-7.844699999999999562e+00
-8.147299999999999542e+00
-8.278200000000000003e+00
-8.134399999999999409e+00
-8.116300000000000736e+00
-7.983999999999999986e+00
-7.823000000000000398e+00
-7.822400000000000020e+00
-8.237999999999999545e+00
-8.422200000000000131e+00
-8.036699999999999733e+00
-8.278900000000000148e+00
-8.021499999999999631e+00
-8.305600000000000094e+00
-8.151999999999999247e+00
-7.830199999999999605e+00
-7.839599999999999902e+00
-7.940800000000000303e+00
-7.916599999999999859e+00
-7.891899999999999693e+00
-7.702700000000000102e+00
-7.971300000000000274e+00
-8.073000000000000398e+00
-8.083500000000000796e+00
-7.772400000000000198e+00
-8.146800000000000708e+00
-8.527300000000000324e+00
-7.940400000000000347e+00
-7.991699999999999804e+00
-8.419999999999999929e+00
-7.930699999999999861e+00
-7.830099999999999838e+00
-7.791400000000000325e+00
-8.191300000000000026e+00
-8.332399999999999807e+00
-8.055899999999999395e+00
-7.865400000000000169e+00
-8.244899999999999451e+00
-8.044000000000000483e+00
-7.907199999999999562e+00
-7.877600000000000158e+00
-8.115700000000000358e+00
-8.049300000000000566e+00
-8.423099999999999810e+00
-7.978299999999999947e+00
-8.001400000000000290e+00
-7.833199999999999719e+00
-7.805699999999999861e+00
-7.932500000000000107e+00
-8.506600000000000605e+00
-7.596599999999999575e+00
-7.765799999999999592e+00
-7.997799999999999798e+00
-8.104499999999999815e+00
-7.797200000000000131e+00
-8.006099999999999994e+00
-7.635600000000000165e+00
-7.705499999999999794e+00
-8.144399999999999196e+00
-8.285899999999999821e+00
-7.844400000000000261e+00
-8.175599999999999312e+00
-8.170400000000000773e+00
-8.286799999999999500e+00
-7.682500000000000107e+00
-7.728699999999999903e+00
-8.177799999999999514e+00
-7.694600000000000328e+00
-7.582399999999999807e+00
-7.816600000000000215e+00
-8.018299999999999983e+00
-7.829699999999999882e+00
-7.976300000000000168e+00
-8.477100000000000080e+00
-8.124599999999999156e+00
-8.359999999999999432e+00
-8.016799999999999926e+00
-7.740800000000000125e+00
-8.012900000000000134e+00
-8.115999999999999659e+00
-8.022000000000000242e+00
-7.762299999999999756e+00
-7.638099999999999667e+00
-7.692199999999999704e+00
-8.033099999999999241e+00
-7.997300000000000075e+00
-8.070600000000000662e+00
-8.027699999999999392e+00
-8.322900000000000631e+00
-7.906500000000000306e+00
-8.029600000000000293e+00
-8.235099999999999199e+00
-7.892299999999999649e+00
-7.694499999999999673e+00
-8.293699999999999406e+00
-7.996500000000000163e+00
-8.291000000000000369e+00
-7.852199999999999847e+00
-8.389400000000000190e+00
-7.616200000000000081e+00
-8.190500000000000114e+00
-8.467299999999999827e+00
-8.250799999999999912e+00
-8.318899999999999295e+00
-7.625899999999999679e+00
-8.453599999999999781e+00
-7.994399999999999729e+00
-7.863699999999999690e+00
-7.778100000000000236e+00
-7.641700000000000159e+00
-7.506999999999999673e+00
-7.933200000000000252e+00
-7.685599999999999987e+00
-8.062799999999999301e+00
-8.002800000000000580e+00
-7.727100000000000080e+00
-7.549900000000000055e+00
-7.956900000000000084e+00
-7.807999999999999829e+00
-8.209699999999999775e+00
-8.051199999999999690e+00
-7.657199999999999562e+00
-8.120699999999999363e+00
-8.080899999999999750e+00
-7.584999999999999964e+00
-7.722199999999999953e+00
-7.844400000000000261e+00
-8.354699999999999349e+00
-8.253099999999999881e+00
-7.856799999999999784e+00
-7.843700000000000117e+00
-7.746000000000000441e+00
-7.952600000000000335e+00
-7.904799999999999827e+00
-8.336999999999999744e+00
-8.380499999999999616e+00
-7.839299999999999713e+00
-7.826200000000000045e+00
-7.922100000000000364e+00
-8.151899999999999480e+00
-8.054899999999999949e+00
-7.823299999999999699e+00
-7.931300000000000239e+00
-7.810599999999999987e+00
-8.225500000000000256e+00
-7.891300000000000203e+00
-7.714900000000000091e+00
-8.254899999999999238e+00
-7.679800000000000182e+00
-7.607999999999999652e+00
-7.698500000000000121e+00
-7.851899999999999658e+00
-7.987700000000000244e+00
-8.034399999999999764e+00
-7.767199999999999882e+00
-8.361599999999999255e+00
-8.263099999999999667e+00
-7.684899999999999842e+00
-7.856099999999999639e+00
-8.105600000000000804e+00
-8.031800000000000495e+00
-7.697600000000000442e+00
-7.963099999999999845e+00
-7.899099999999999788e+00
-7.814400000000000013e+00
-7.875000000000000000e+00
-8.030599999999999739e+00
-8.301399999999999224e+00
-8.333800000000000097e+00
-8.285299999999999443e+00
-8.100400000000000489e+00
-7.832399999999999807e+00
-7.730800000000000338e+00
-7.901399999999999757e+00
-7.902800000000000047e+00
-7.667500000000000426e+00
-8.156900000000000261e+00
-7.897100000000000009e+00
-7.940299999999999692e+00
-7.874200000000000088e+00
-7.992899999999999672e+00
-7.826500000000000234e+00
-8.159800000000000608e+00
-7.929999999999999716e+00
-7.774700000000000166e+00
-7.588899999999999757e+00
-8.179700000000000415e+00
-8.358200000000000074e+00
-8.059799999999999187e+00
-7.874600000000000044e+00
-7.658800000000000274e+00
-7.676199999999999690e+00
-7.835399999999999920e+00
-7.850799999999999557e+00
-8.300300000000000011e+00
-8.020099999999999341e+00
-7.967900000000000205e+00
-7.987800000000000011e+00
-7.836400000000000254e+00
-8.576299999999999812e+00
-8.014599999999999724e+00
-8.224000000000000199e+00
-7.872799999999999798e+00
-7.953800000000000203e+00
-7.748199999999999754e+00
-8.204499999999999460e+00
-8.511499999999999844e+00
-7.820599999999999774e+00
-8.307100000000000151e+00
-8.023999999999999133e+00
-8.107100000000000861e+00
-8.041800000000000281e+00
-8.170099999999999696e+00
-8.233800000000000452e+00
-8.050599999999999312e+00
-8.117699999999999250e+00
-8.024699999999999278e+00
-7.857199999999999740e+00
-8.248200000000000642e+00
-7.904600000000000293e+00
-7.956699999999999662e+00
-8.179299999999999571e+00
-7.884299999999999642e+00
-8.293100000000000804e+00
-8.217200000000000060e+00
-7.987199999999999633e+00
-7.944300000000000139e+00
-7.920600000000000307e+00
-7.708300000000000374e+00
-8.341900000000000759e+00
-7.878599999999999604e+00
-7.793099999999999916e+00
-8.418400000000000105e+00
-7.919500000000000206e+00
-8.277699999999999392e+00
-7.894700000000000273e+00
-7.623599999999999710e+00
-8.192800000000000082e+00
-7.771700000000000053e+00
-8.258800000000000807e+00
-8.078200000000000713e+00
-7.790600000000000414e+00
-8.097899999999999210e+00
-8.356899999999999551e+00
-8.054299999999999571e+00
-7.790600000000000414e+00
-7.868000000000000327e+00
-8.637499999999999289e+00
-7.745499999999999829e+00
-8.012000000000000455e+00
-8.344400000000000261e+00
-8.064399999999999125e+00
-8.282199999999999562e+00
-7.955599999999999561e+00
-7.787899999999999601e+00
-8.331099999999999284e+00
-7.730000000000000426e+00
-8.023199999999999221e+00
-7.903999999999999915e+00
-7.723499999999999588e+00
-8.435800000000000409e+00
-8.370599999999999596e+00
-7.893799999999999706e+00
-7.751999999999999780e+00
-8.020200000000000884e+00
-8.188399999999999679e+00
-7.667500000000000426e+00
-7.840200000000000280e+00
-7.762299999999999756e+00
-7.689300000000000246e+00
-7.942700000000000315e+00
-8.488099999999999312e+00
-8.283500000000000085e+00
-8.413399999999999324e+00
-7.638700000000000045e+00
-7.945999999999999730e+00
-7.949900000000000411e+00
-8.013999999999999346e+00
-7.887400000000000411e+00
-7.735899999999999999e+00
-7.907399999999999984e+00
-8.334899999999999309e+00
-7.822000000000000064e+00
-7.693100000000000271e+00
-7.890399999999999636e+00
-7.903500000000000192e+00
-8.169200000000000017e+00
-8.263199999999999434e+00
-8.012900000000000134e+00
-7.991999999999999993e+00
-8.180199999999999250e+00
-7.870300000000000296e+00
-8.186899999999999622e+00
-7.871900000000000119e+00
-7.878899999999999793e+00
-8.326499999999999346e+00
-7.967900000000000205e+00
-8.003800000000000026e+00
-8.067899999999999849e+00
-7.903500000000000192e+00
-7.701800000000000423e+00
-7.579299999999999926e+00
-7.854599999999999582e+00
-8.374700000000000699e+00
-8.386200000000000543e+00
-7.953199999999999825e+00
-7.708499999999999908e+00
-7.985299999999999621e+00
-7.714500000000000135e+00
-8.290800000000000836e+00
-7.769099999999999895e+00
-7.886599999999999611e+00
-8.097599999999999909e+00
-7.935800000000000409e+00
-8.104200000000000514e+00
-7.612000000000000099e+00
-7.573100000000000165e+00
-7.814300000000000246e+00
-7.937199999999999811e+00
-7.823599999999999888e+00
-8.514400000000000190e+00
-7.785700000000000287e+00
-7.634800000000000253e+00
-8.247899999999999565e+00
-8.294900000000000162e+00
-7.820199999999999818e+00
-8.558500000000000441e+00
-7.902499999999999858e+00
-7.747399999999999842e+00
-7.747600000000000264e+00
-7.778500000000000192e+00
-8.281200000000000117e+00
-7.692300000000000360e+00
-7.902199999999999669e+00
-7.671100000000000030e+00
-7.985500000000000043e+00
-8.083999999999999631e+00
-7.684899999999999842e+00
-8.487899999999999778e+00
-8.048400000000000887e+00
-7.998999999999999666e+00
-7.698500000000000121e+00
-8.162900000000000489e+00
-8.006299999999999528e+00
-8.049599999999999866e+00
-8.217999999999999972e+00
-8.047900000000000276e+00
-8.031700000000000728e+00
-7.798700000000000188e+00
-7.994500000000000384e+00
-7.994699999999999918e+00
-8.344099999999999184e+00
-8.580899999999999750e+00
-7.938600000000000101e+00
-8.304100000000000037e+00
-8.402200000000000557e+00
-8.327600000000000335e+00
-8.140700000000000713e+00
-8.393299999999999983e+00
-7.791400000000000325e+00
-8.262199999999999989e+00
-7.878899999999999793e+00
-8.181100000000000705e+00
-8.229799999999999116e+00
-8.137299999999999756e+00
-7.887999999999999901e+00
-7.904600000000000293e+00
-8.208600000000000563e+00
-7.863299999999999734e+00
-8.285600000000000520e+00
-7.884599999999999831e+00
-7.971599999999999575e+00
-8.289999999999999147e+00
-7.805399999999999672e+00
-8.019199999999999662e+00
-8.117900000000000560e+00
-7.890500000000000291e+00
-7.753899999999999793e+00
-7.915399999999999991e+00
-7.976499999999999702e+00
-7.612300000000000288e+00
-8.306599999999999540e+00
-7.987800000000000011e+00
-8.043300000000000338e+00
-8.141199999999999548e+00
-8.070899999999999963e+00
-7.498400000000000176e+00
-7.969299999999999606e+00
-8.188599999999999213e+00
-8.195899999999999963e+00
-8.047399999999999665e+00
-8.063299999999999912e+00
-8.000199999999999534e+00
-8.278499999999999304e+00
-8.501899999999999125e+00
-8.069900000000000517e+00
-7.876999999999999780e+00
-7.711800000000000210e+00
-8.109999999999999432e+00
-8.052300000000000679e+00
-7.874399999999999622e+00
-8.064199999999999591e+00
-8.150499999999999190e+00
-7.660999999999999588e+00
-7.979000000000000092e+00
-7.976600000000000357e+00
-8.226499999999999702e+00
-7.756899999999999906e+00
-7.758399999999999963e+00
-8.364900000000000446e+00
-7.722400000000000375e+00
-7.688699999999999868e+00
-7.789500000000000313e+00
-8.049400000000000333e+00
-7.693399999999999572e+00
-7.875899999999999679e+00
-7.776900000000000368e+00
-7.823100000000000165e+00
-8.130599999999999383e+00
-8.087199999999999278e+00
-8.058999999999999275e+00
-8.013799999999999812e+00
-7.890299999999999869e+00
-7.763899999999999579e+00
-8.040699999999999292e+00
-7.913400000000000212e+00
-7.821900000000000297e+00
-7.668099999999999916e+00
-7.782000000000000028e+00
-7.801899999999999835e+00
-7.811399999999999899e+00
-8.180300000000000793e+00
-8.208899999999999864e+00
-8.454200000000000159e+00
-7.932599999999999874e+00
-8.164999999999999147e+00
-7.943500000000000227e+00
-7.952399999999999913e+00
-7.737199999999999633e+00
-8.091499999999999915e+00
-8.029099999999999682e+00
-8.407199999999999562e+00
-7.846700000000000230e+00
-7.827700000000000102e+00
-7.854700000000000237e+00
-7.781100000000000350e+00
-7.998800000000000132e+00
-7.964999999999999858e+00
-8.296200000000000685e+00
-8.163500000000000867e+00
-7.687299999999999578e+00
-7.744200000000000195e+00
-8.582300000000000040e+00
-8.092599999999999127e+00
-8.111000000000000654e+00
-8.307299999999999685e+00
-8.569000000000000838e+00
-7.694399999999999906e+00
-7.792300000000000004e+00
-8.001200000000000756e+00
-7.710899999999999643e+00
-7.815699999999999648e+00
-8.071199999999999264e+00
-8.313599999999999213e+00
-7.781299999999999883e+00
-8.570499999999999119e+00
-8.201200000000000045e+00
-8.387000000000000455e+00
-7.888300000000000090e+00
-7.796700000000000408e+00
-7.851300000000000168e+00
-8.030799999999999272e+00
-7.717500000000000249e+00
-7.843499999999999694e+00
-8.503500000000000725e+00
-7.637299999999999756e+00
-8.272299999999999542e+00
-7.697700000000000209e+00
-8.146300000000000097e+00
-7.773500000000000298e+00
-7.903800000000000381e+00
-8.425499999999999545e+00
-8.099999999999999645e+00
-8.445199999999999818e+00
-7.690500000000000114e+00
-8.296200000000000685e+00
-8.247899999999999565e+00
-8.423099999999999810e+00
-7.907300000000000217e+00
-7.757799999999999585e+00
-8.043599999999999639e+00
-7.745899999999999785e+00
-7.738299999999999734e+00
-7.877600000000000158e+00
-7.842399999999999594e+00
-7.861200000000000188e+00
-8.099800000000000111e+00
-8.044700000000000628e+00
-7.970900000000000318e+00
-7.940400000000000347e+00
-7.959800000000000431e+00
-8.348699999999999122e+00
-7.903400000000000425e+00
-8.006000000000000227e+00
-8.285299999999999443e+00
-7.847500000000000142e+00
-7.584100000000000286e+00
-8.311500000000000554e+00
-8.037399999999999878e+00
-7.900900000000000034e+00
-8.088599999999999568e+00
-7.722500000000000142e+00
-7.817499999999999893e+00
-8.030400000000000205e+00
-8.452600000000000335e+00
-8.500099999999999767e+00
-7.562800000000000189e+00
-7.786299999999999777e+00
-7.986500000000000377e+00
-8.029199999999999449e+00
-8.029999999999999361e+00
-7.987400000000000055e+00
-7.871699999999999697e+00
-8.471199999999999619e+00
-7.751500000000000057e+00
-7.865199999999999747e+00
-8.080399999999999139e+00
-8.182999999999999829e+00
-8.513500000000000512e+00
-7.869399999999999729e+00
-8.026500000000000412e+00
-7.751699999999999591e+00
-7.900900000000000034e+00
-8.302799999999999514e+00
-8.080999999999999517e+00
-7.613000000000000433e+00
-7.667600000000000193e+00
-7.792799999999999727e+00
-8.249800000000000466e+00
-7.703199999999999825e+00
-7.880700000000000038e+00
-7.677399999999999558e+00
-7.806499999999999773e+00
-7.817099999999999937e+00
-8.003299999999999415e+00
-7.727100000000000080e+00
-7.744500000000000384e+00
-8.048299999999999343e+00
-8.073600000000000776e+00
-8.035000000000000142e+00
-7.938299999999999912e+00
-8.571899999999999409e+00
-8.289600000000000080e+00
-8.295799999999999841e+00
-7.979700000000000237e+00
-7.786599999999999966e+00
-8.362299999999999400e+00
-8.146699999999999164e+00
-8.075499999999999901e+00
-8.145799999999999486e+00
-8.431400000000000006e+00
-7.857999999999999652e+00
-7.725299999999999834e+00
-7.698400000000000354e+00
-7.644899999999999807e+00
-7.723099999999999632e+00
-7.984399999999999942e+00
-7.617899999999999672e+00
-7.972999999999999865e+00
-8.074699999999999989e+00
-7.997600000000000264e+00
-8.001099999999999213e+00
-7.930699999999999861e+00
-8.435399999999999565e+00
-8.515499999999999403e+00
-7.993900000000000006e+00
-7.764999999999999680e+00
-7.868199999999999861e+00
-8.238099999999999312e+00
-8.250700000000000145e+00
-7.865099999999999980e+00
-7.975200000000000067e+00
-7.878300000000000303e+00
-7.883399999999999963e+00
-7.726099999999999746e+00
-8.042899999999999494e+00
-7.708899999999999864e+00
-7.571799999999999642e+00
-7.859600000000000364e+00
-7.869399999999999729e+00
-7.562500000000000000e+00
-8.157899999999999707e+00
-7.933399999999999785e+00
-7.569700000000000095e+00
-8.011300000000000310e+00
-7.917699999999999960e+00
-7.943699999999999761e+00
-8.230000000000000426e+00
-7.726600000000000357e+00
-7.708599999999999675e+00
-8.271200000000000330e+00
-7.975799999999999557e+00
-7.860699999999999577e+00
-8.490500000000000824e+00
-8.444399999999999906e+00
-7.468099999999999739e+00
-7.791699999999999626e+00
-8.404700000000000060e+00
-8.129400000000000404e+00
-8.295500000000000540e+00
-8.375799999999999912e+00
-7.932199999999999918e+00
-7.926400000000000112e+00
-7.789699999999999847e+00
-7.926899999999999835e+00
-8.015700000000000713e+00
-7.738299999999999734e+00
-7.641399999999999970e+00
-7.524899999999999700e+00
-7.973399999999999821e+00
-8.274300000000000210e+00
-7.820500000000000007e+00
-7.898500000000000298e+00
-7.843300000000000161e+00
-7.566600000000000215e+00
-7.816300000000000026e+00
-7.859899999999999665e+00
-8.465999999999999304e+00
-7.597999999999999865e+00
-7.947600000000000442e+00
-7.684800000000000075e+00
-7.617499999999999716e+00
-8.055199999999999250e+00
-7.748099999999999987e+00
-8.129400000000000404e+00
-7.992499999999999716e+00
-8.566599999999999326e+00
-8.330999999999999517e+00
-7.884699999999999598e+00
-8.265499999999999403e+00
-7.602899999999999991e+00
-7.923399999999999999e+00
-8.072800000000000864e+00
-8.003800000000000026e+00
-7.679000000000000270e+00
-7.583599999999999675e+00
-7.796000000000000263e+00
-7.845299999999999940e+00
-7.817800000000000082e+00
-7.751699999999999591e+00
-7.719599999999999795e+00
-8.265700000000000713e+00
-7.794699999999999740e+00
-7.663599999999999746e+00
-7.920499999999999652e+00
-7.942300000000000360e+00
-7.856900000000000439e+00
-7.653800000000000381e+00
-8.202700000000000102e+00
-8.334699999999999775e+00
-7.864499999999999602e+00
-7.968499999999999694e+00
-8.090700000000000003e+00
-8.083099999999999952e+00
-7.722299999999999720e+00
-8.279199999999999449e+00
-7.894199999999999662e+00
-7.974499999999999922e+00
-7.801899999999999835e+00
-8.480000000000000426e+00
-7.716199999999999726e+00
-8.141799999999999926e+00
-8.028900000000000148e+00
-8.231299999999999173e+00
-8.061099999999999710e+00
-8.066000000000000725e+00
-8.282600000000000406e+00
-7.919400000000000439e+00
-7.926099999999999923e+00
-8.067199999999999704e+00
-7.957200000000000273e+00
-7.978200000000000180e+00
-7.751000000000000334e+00
-8.231199999999999406e+00
-8.352899999999999991e+00
-8.064500000000000668e+00
-7.879599999999999937e+00
-8.070899999999999963e+00
-7.635600000000000165e+00
-7.758700000000000152e+00
-8.189199999999999591e+00
-8.198199999999999932e+00
-7.909399999999999764e+00
-7.812800000000000189e+00
-7.869600000000000151e+00
-7.840099999999999625e+00
-7.959999999999999964e+00
-7.890500000000000291e+00
-8.021599999999999397e+00
-7.793300000000000338e+00
-7.926899999999999835e+00
-7.689300000000000246e+00
-7.968300000000000161e+00
-7.764599999999999724e+00
-7.837299999999999933e+00
-7.860100000000000087e+00
-8.475099999999999412e+00
-8.208299999999999486e+00
-7.980599999999999916e+00
-7.822600000000000442e+00
-8.150199999999999889e+00
-7.784600000000000186e+00
-7.774399999999999977e+00
-7.869399999999999729e+00
-7.937700000000000422e+00
-8.101699999999999235e+00
-7.952600000000000335e+00
-7.809599999999999653e+00
-8.085800000000000765e+00
-7.878300000000000303e+00
-8.150000000000000355e+00
-8.278200000000000003e+00
-7.776299999999999990e+00
-8.190799999999999415e+00
-8.173099999999999810e+00
-8.529899999999999594e+00
-8.519700000000000273e+00
-8.189799999999999969e+00
-8.151099999999999568e+00
-7.682699999999999640e+00
-7.644000000000000128e+00
-8.079700000000000770e+00
-7.815000000000000391e+00
-7.889999999999999680e+00
-8.266000000000000014e+00
-7.736500000000000377e+00
-8.495799999999999130e+00
-8.039300000000000779e+00
-8.042899999999999494e+00
-7.831800000000000317e+00
-7.623499999999999943e+00
-8.028100000000000236e+00
-8.426899999999999835e+00
-8.061099999999999710e+00
-7.864399999999999835e+00
-8.331500000000000128e+00
-8.342399999999999594e+00
-7.927100000000000257e+00
-7.881400000000000183e+00
-8.438299999999999912e+00
-8.268100000000000449e+00
-7.688100000000000378e+00
-8.003500000000000725e+00
-7.753300000000000303e+00
-8.356500000000000483e+00
-8.329599999999999227e+00
-8.001500000000000057e+00
-7.637800000000000367e+00
-7.552299999999999791e+00
-8.336800000000000210e+00
-8.017699999999999605e+00
-7.998300000000000409e+00
-7.862899999999999778e+00
-7.656399999999999650e+00
-7.907499999999999751e+00
-8.115600000000000591e+00
-7.662799999999999834e+00
-7.696299999999999919e+00
-7.710399999999999920e+00
-7.938200000000000145e+00
-7.799800000000000288e+00
-7.847699999999999676e+00
-7.868599999999999817e+00
-7.852000000000000313e+00
-7.936099999999999710e+00
-7.973900000000000432e+00
-8.143499999999999517e+00
-8.058500000000000441e+00
-7.509900000000000020e+00
-8.060700000000000642e+00
-8.002700000000000813e+00
-7.769700000000000273e+00
-8.555899999999999395e+00
-7.965499999999999581e+00
-7.547200000000000131e+00
-8.374599999999999156e+00
-7.690199999999999925e+00
-8.012999999999999901e+00
-7.832300000000000040e+00
-7.683399999999999785e+00
-8.000400000000000844e+00
-8.343500000000000583e+00
-8.449699999999999989e+00
-7.649799999999999933e+00
-8.062799999999999301e+00
-7.745599999999999596e+00
-8.256000000000000227e+00
-8.056300000000000239e+00
-7.963499999999999801e+00
-7.919699999999999740e+00
-8.450100000000000833e+00
-7.796100000000000030e+00
-8.047499999999999432e+00
-8.281000000000000583e+00
-7.722000000000000419e+00
-7.952799999999999869e+00
-7.869699999999999918e+00
-8.060299999999999798e+00
-8.416900000000000048e+00
-8.315099999999999270e+00
-7.930299999999999905e+00
-7.897700000000000387e+00
-7.812299999999999578e+00
-7.799100000000000144e+00
-7.788700000000000401e+00
-8.112700000000000244e+00
-7.581000000000000405e+00
-7.844199999999999839e+00
-7.677900000000000169e+00
-7.935699999999999754e+00
-7.963000000000000078e+00
-7.774899999999999700e+00
-8.049200000000000799e+00
-8.064899999999999736e+00
-8.129099999999999326e+00
-8.177400000000000446e+00
-7.841499999999999915e+00
-8.142300000000000537e+00
-8.159299999999999997e+00
-8.350099999999999412e+00
-8.273199999999999221e+00
-7.768500000000000405e+00
-8.053699999999999193e+00
-7.726200000000000401e+00
-7.852699999999999569e+00
-7.960499999999999687e+00
-7.743800000000000239e+00
-8.069200000000000372e+00
-8.001699999999999591e+00
-7.750099999999999767e+00
-8.052599999999999980e+00
-8.410999999999999588e+00
-8.074299999999999145e+00
-7.747899999999999565e+00
-7.857000000000000206e+00
-8.460300000000000153e+00
-7.683699999999999974e+00
-8.426800000000000068e+00
-8.038700000000000401e+00
-7.868100000000000094e+00
-8.048299999999999343e+00
-7.674199999999999910e+00
-7.732300000000000395e+00
-7.560500000000000220e+00
-7.957799999999999763e+00
-7.894400000000000084e+00
-7.923700000000000188e+00
-8.312500000000000000e+00
-8.413800000000000168e+00
-8.038399999999999324e+00
-7.883300000000000196e+00
-7.835700000000000109e+00
-7.716899999999999871e+00
-7.806400000000000006e+00
-8.066000000000000725e+00
-7.861799999999999677e+00
-8.269299999999999429e+00
-7.573599999999999888e+00
-7.770900000000000141e+00
-8.108499999999999375e+00
-7.731300000000000061e+00
-8.142099999999999227e+00
-8.153399999999999537e+00
-8.304999999999999716e+00
-8.497400000000000730e+00
-8.028100000000000236e+00
-7.824699999999999989e+00
-7.916299999999999670e+00
-7.785599999999999632e+00
-7.768699999999999939e+00
-7.991100000000000314e+00
-7.801700000000000301e+00
-7.432500000000000107e+00
-8.174500000000000099e+00
-7.724199999999999733e+00
-7.809800000000000075e+00
-8.147399999999999309e+00
-8.009600000000000719e+00
-8.286500000000000199e+00
-7.823199999999999932e+00
-8.146399999999999864e+00
-7.950599999999999667e+00
-7.947700000000000209e+00
-7.877900000000000347e+00
-8.116199999999999193e+00
-8.211800000000000210e+00
-7.750600000000000378e+00
-7.917699999999999960e+00
-8.040900000000000603e+00
-7.749500000000000277e+00
-7.689400000000000013e+00
-8.287000000000000810e+00
-7.599199999999999733e+00
-7.730699999999999683e+00
-7.603100000000000414e+00
-8.483700000000000685e+00
-8.053499999999999659e+00
-7.772700000000000387e+00
-8.038399999999999324e+00
-8.064799999999999969e+00
-7.668800000000000061e+00
-8.050000000000000711e+00
-8.574799999999999756e+00
-7.753000000000000114e+00
-8.382500000000000284e+00
-7.935900000000000176e+00
-8.260799999999999699e+00
-7.847999999999999865e+00
-8.117100000000000648e+00
-7.728399999999999714e+00
-7.607199999999999740e+00
-7.935900000000000176e+00
-7.803600000000000314e+00
-8.181699999999999307e+00
-7.967699999999999783e+00
-7.842800000000000438e+00
-7.859700000000000131e+00
-8.078900000000000858e+00
-8.255699999999999150e+00
-8.170899999999999608e+00
-7.738699999999999690e+00
-7.793599999999999639e+00
-8.480199999999999960e+00
-7.948299999999999699e+00
-7.798000000000000043e+00
-8.242699999999999250e+00
-7.843600000000000350e+00
-7.693900000000000183e+00
-7.761000000000000121e+00
-7.801899999999999835e+00
-8.276199999999999335e+00
-7.687999999999999723e+00
-7.931199999999999584e+00
-7.829399999999999693e+00
-7.751599999999999824e+00
-7.679499999999999993e+00
-8.076000000000000512e+00
-8.138600000000000279e+00
-8.397100000000000009e+00
-8.356400000000000716e+00
-8.127200000000000202e+00
-7.896099999999999675e+00
-7.904899999999999594e+00
-7.813299999999999912e+00
-7.738800000000000345e+00
-8.032999999999999474e+00
-8.352199999999999847e+00
-8.236900000000000333e+00
-7.902400000000000091e+00
-8.290300000000000225e+00
-7.797299999999999898e+00
-7.907199999999999562e+00
-7.945400000000000240e+00
-7.788299999999999557e+00
-7.677299999999999791e+00
-8.119300000000000850e+00
-7.677500000000000213e+00
-7.889899999999999913e+00
-7.937100000000000044e+00
-7.834800000000000431e+00
-7.787799999999999834e+00
-8.272500000000000853e+00
-7.753899999999999793e+00
-7.661699999999999733e+00
-8.297800000000000509e+00
-7.660099999999999909e+00
-7.805399999999999672e+00
-7.780899999999999928e+00
-7.719299999999999606e+00
-8.029400000000000759e+00
-7.737599999999999589e+00
-8.274800000000000821e+00
-8.422900000000000276e+00
-8.342900000000000205e+00
-8.149699999999999278e+00
-8.194300000000000139e+00
-8.013099999999999667e+00
-8.042299999999999116e+00
-7.992200000000000415e+00
-7.746500000000000163e+00
-8.225899999999999324e+00
-8.181100000000000705e+00
-7.841099999999999959e+00
-7.947199999999999598e+00
-8.272600000000000620e+00
-8.382799999999999585e+00
-7.947799999999999976e+00
-7.929100000000000037e+00
-8.346000000000000085e+00
-7.613800000000000345e+00
-7.752299999999999969e+00
-8.208399999999999253e+00
-7.842100000000000293e+00
-8.252900000000000347e+00
-8.340299999999999159e+00
-8.224199999999999733e+00
-8.063700000000000756e+00
-7.987599999999999589e+00
-8.469300000000000495e+00
-8.608200000000000074e+00
-7.911999999999999922e+00
-7.658599999999999852e+00
-8.522700000000000387e+00
-8.157199999999999562e+00
-8.221600000000000463e+00
-7.845900000000000318e+00
-8.029199999999999449e+00
-7.714100000000000179e+00
-8.104900000000000659e+00
-7.793700000000000294e+00
-8.047100000000000364e+00
-7.892900000000000027e+00
-8.204100000000000392e+00
-7.937400000000000233e+00
-8.097500000000000142e+00
-8.069200000000000372e+00
-7.789500000000000313e+00
-7.704299999999999926e+00
-7.811499999999999666e+00
-7.764800000000000146e+00
-7.978799999999999670e+00
-8.221600000000000463e+00
-8.201999999999999957e+00
-7.864399999999999835e+00
-7.844599999999999795e+00
-7.795399999999999885e+00
-8.380200000000000315e+00
-7.958300000000000374e+00
-7.648900000000000254e+00
-7.815599999999999881e+00
-7.852899999999999991e+00
-8.015000000000000568e+00
-7.929100000000000037e+00
-7.742200000000000415e+00
-8.187300000000000466e+00
-8.371600000000000819e+00
-8.532000000000000028e+00
-8.163700000000000401e+00
-7.704100000000000392e+00
-8.313000000000000611e+00
-8.202700000000000102e+00
-8.516199999999999548e+00
-7.869100000000000428e+00
-8.069499999999999673e+00
-8.237099999999999866e+00
-8.385600000000000165e+00
-8.406499999999999417e+00
-7.755799999999999805e+00
-8.442999999999999616e+00
-7.820299999999999585e+00
-8.000999999999999446e+00
-8.196199999999999264e+00
-7.690500000000000114e+00
-8.562300000000000466e+00
-7.695500000000000007e+00
-8.070399999999999352e+00
-8.072900000000000631e+00
-8.085000000000000853e+00
-7.747700000000000031e+00
-7.935999999999999943e+00
-7.760500000000000398e+00
-7.882100000000000328e+00
-8.273500000000000298e+00
-7.685500000000000220e+00
-7.986299999999999955e+00
-7.932500000000000107e+00
-7.972000000000000419e+00
-7.961299999999999599e+00
-7.813500000000000334e+00
-8.250799999999999912e+00
-7.604300000000000281e+00
-7.617799999999999905e+00
-7.823800000000000310e+00
-8.112199999999999633e+00
-7.685999999999999943e+00
-7.757200000000000095e+00
-7.827700000000000102e+00
-7.998899999999999899e+00
-7.578599999999999781e+00
-8.101300000000000168e+00
-7.860800000000000232e+00
-7.584399999999999586e+00
-8.460800000000000765e+00
-7.491500000000000270e+00
-7.940699999999999648e+00
-7.829399999999999693e+00
-7.981600000000000250e+00
-8.247700000000000031e+00
-8.065599999999999881e+00
-8.007400000000000517e+00
-8.331699999999999662e+00
-7.900999999999999801e+00
-8.054100000000000037e+00
-7.898900000000000254e+00
-8.605199999999999960e+00
-7.801499999999999879e+00
-7.749799999999999578e+00
-8.506299999999999528e+00
-7.794699999999999740e+00
-8.023300000000000765e+00
-7.920200000000000351e+00
-8.048400000000000887e+00
-7.737599999999999589e+00
-8.093999999999999417e+00
-7.951399999999999579e+00
-7.867200000000000415e+00
-8.108399999999999608e+00
-8.246700000000000585e+00
-7.924100000000000144e+00
-8.248499999999999943e+00
-7.703199999999999825e+00
-7.646499999999999631e+00
-7.876500000000000057e+00
-8.075900000000000745e+00
-7.955099999999999838e+00
-7.801999999999999602e+00
-8.140299999999999869e+00
-7.963799999999999990e+00
-7.812199999999999811e+00
-7.642800000000000260e+00
-7.690000000000000391e+00
-7.737899999999999778e+00
-8.212099999999999511e+00
-8.361700000000000799e+00
-7.647800000000000153e+00
-8.112999999999999545e+00
-7.629400000000000404e+00
-8.105499999999999261e+00
-8.507899999999999352e+00
-7.989600000000000257e+00
-8.039199999999999235e+00
-7.930500000000000327e+00
-8.114800000000000679e+00
-7.888700000000000045e+00
-8.054800000000000182e+00
-8.310999999999999943e+00
-7.939199999999999591e+00
-8.260999999999999233e+00
-8.157299999999999329e+00
-7.683500000000000441e+00
-7.805100000000000371e+00
-8.045600000000000307e+00
-7.980100000000000193e+00
-7.789900000000000269e+00
-8.077400000000000801e+00
-8.047000000000000597e+00
-8.236100000000000421e+00
-7.951200000000000045e+00
-7.926800000000000068e+00
-8.402499999999999858e+00
-7.735999999999999766e+00
-8.143599999999999284e+00
-7.602699999999999569e+00
-7.966400000000000148e+00
-7.725399999999999601e+00
-8.016000000000000014e+00
-8.373300000000000409e+00
-7.912600000000000300e+00
-8.373499999999999943e+00
-7.797799999999999621e+00
-7.913800000000000168e+00
-8.050200000000000244e+00
-8.028999999999999915e+00
-7.998700000000000365e+00
-8.253500000000000725e+00
-7.745300000000000296e+00
-8.156599999999999184e+00
-7.846599999999999575e+00
-8.130399999999999849e+00
-7.909200000000000230e+00
-7.802999999999999936e+00
-7.726700000000000124e+00
-7.731799999999999784e+00
-8.363899999999999224e+00
-8.499200000000000088e+00
-8.012900000000000134e+00
-8.025199999999999889e+00
-8.286199999999999122e+00
-7.479400000000000048e+00
-7.794100000000000250e+00
-8.193799999999999528e+00
-8.096700000000000230e+00
-8.206899999999999196e+00
-7.859499999999999709e+00
-7.877600000000000158e+00
-8.093600000000000350e+00
-7.752100000000000435e+00
-7.942599999999999660e+00
-7.875899999999999679e+00
-8.582900000000000418e+00
-8.206099999999999284e+00
-7.925200000000000244e+00
-7.763499999999999623e+00
-7.882299999999999862e+00
-7.810299999999999798e+00
-7.642500000000000071e+00
-7.837900000000000311e+00
-7.695599999999999774e+00
-8.318799999999999528e+00
-8.163299999999999557e+00
-8.349500000000000810e+00
-7.645699999999999719e+00
-7.556199999999999584e+00
-8.530599999999999739e+00
-7.907499999999999751e+00
-7.540300000000000225e+00
-8.417400000000000659e+00
-8.110099999999999199e+00
-7.905499999999999972e+00
-7.659699999999999953e+00
-7.872700000000000031e+00
-7.943299999999999805e+00
-7.626599999999999824e+00
-7.934599999999999653e+00
-7.856499999999999595e+00
-7.913400000000000212e+00
-8.393900000000000361e+00
-8.019899999999999807e+00
-8.093700000000000117e+00
-8.579299999999999926e+00
-7.671199999999999797e+00
-7.855100000000000193e+00
-8.043400000000000105e+00
-7.833700000000000330e+00
-7.691399999999999793e+00
-7.779099999999999682e+00
-7.972299999999999720e+00
-8.171300000000000452e+00
-7.764899999999999913e+00
-7.817099999999999937e+00
-8.086399999999999366e+00
-7.857099999999999973e+00
-7.960300000000000153e+00
-8.126599999999999824e+00
-8.018499999999999517e+00
-7.914299999999999891e+00
-7.883700000000000152e+00
-8.028000000000000469e+00
-7.674599999999999866e+00
-8.460100000000000620e+00
-8.088200000000000500e+00
-8.139200000000000657e+00
-7.809499999999999886e+00
-8.100600000000000023e+00
-7.943200000000000038e+00
-8.036799999999999500e+00
-8.060999999999999943e+00
-7.837399999999999700e+00
-7.843399999999999928e+00
-7.877699999999999925e+00
-8.378500000000000725e+00
-7.990199999999999747e+00
-8.006199999999999761e+00
-7.735299999999999621e+00
-8.028900000000000148e+00
-8.000099999999999767e+00
-7.805900000000000283e+00
-8.107599999999999696e+00
-7.726499999999999702e+00
-7.729899999999999771e+00
-7.986799999999999677e+00
-8.406700000000000728e+00
-8.114900000000000446e+00
-7.648200000000000109e+00
-7.799100000000000144e+00
-7.755700000000000038e+00
-8.378899999999999793e+00
-8.067399999999999238e+00
-8.076399999999999579e+00
-8.207700000000000884e+00
-8.363300000000000622e+00
-7.758399999999999963e+00
-7.921899999999999942e+00
-7.861200000000000188e+00
-7.631000000000000227e+00
-7.906299999999999883e+00
-8.143800000000000594e+00
-7.964699999999999669e+00
-8.297599999999999199e+00
-7.879299999999999748e+00
-7.902099999999999902e+00
-7.309000000000000163e+00
-8.003199999999999648e+00
-8.026699999999999946e+00
-8.052500000000000213e+00
-7.951399999999999579e+00
-7.926300000000000345e+00
-7.645400000000000418e+00
-7.822000000000000064e+00
-7.780400000000000205e+00
-8.006899999999999906e+00
-7.923899999999999721e+00
-7.543599999999999639e+00
-7.786800000000000388e+00
-7.850399999999999601e+00
-8.043599999999999639e+00
-7.772400000000000198e+00
-7.909799999999999720e+00
-8.400100000000000122e+00
-7.942800000000000082e+00
-8.098599999999999355e+00
-7.543199999999999683e+00
-7.657899999999999707e+00
-8.022000000000000242e+00
-8.262000000000000455e+00
-7.701299999999999812e+00
-8.439299999999999358e+00
-7.877399999999999736e+00
-8.240299999999999514e+00
-8.047299999999999898e+00
-8.047700000000000742e+00
-7.742300000000000182e+00
-7.856300000000000061e+00
-7.965900000000000425e+00
-7.998300000000000409e+00
-8.131700000000000372e+00
-8.243800000000000239e+00
-8.124800000000000466e+00
-8.092800000000000438e+00
-7.613599999999999923e+00
-8.025700000000000500e+00
-8.436700000000000088e+00
-7.862700000000000244e+00
-7.991100000000000314e+00
-7.982899999999999885e+00
-8.132999999999999119e+00
-7.790000000000000036e+00
-8.359999999999999432e+00
-7.736200000000000188e+00
-7.966099999999999959e+00
-7.800099999999999589e+00
-8.089399999999999480e+00
-8.221600000000000463e+00
-7.650500000000000078e+00
-7.944700000000000095e+00
-8.134399999999999409e+00
-7.851200000000000401e+00
-8.346999999999999531e+00
-8.006399999999999295e+00
-7.786500000000000199e+00
-7.722900000000000098e+00
-7.968200000000000394e+00
-7.971499999999999808e+00
-7.794400000000000439e+00
-7.688600000000000101e+00
-7.810999999999999943e+00
-8.121700000000000585e+00
-8.461299999999999599e+00
-8.506399999999999295e+00
-8.194499999999999673e+00
-8.288500000000000867e+00
-8.036199999999999122e+00
-8.351699999999999235e+00
-7.855599999999999916e+00
-8.025600000000000733e+00
-8.056100000000000705e+00
-7.972599999999999909e+00
-7.757500000000000284e+00
-7.985599999999999810e+00
-8.145200000000000884e+00
-8.073499999999999233e+00
-7.770999999999999908e+00
-7.903200000000000003e+00
-7.759800000000000253e+00
-7.929400000000000226e+00
-8.186500000000000554e+00
-8.128199999999999648e+00
-8.497299999999999187e+00
-7.961000000000000298e+00
-7.963499999999999801e+00
-8.493399999999999395e+00
-8.034900000000000375e+00
-7.921700000000000408e+00
-7.559599999999999653e+00
-8.300399999999999778e+00
-8.041299999999999670e+00
-7.621599999999999930e+00
-7.812199999999999811e+00
-7.890699999999999825e+00
-8.366300000000000736e+00
-8.239499999999999602e+00
-8.261100000000000776e+00
-8.175499999999999545e+00
-8.011400000000000077e+00
-7.754900000000000126e+00
-8.300100000000000477e+00
-8.417699999999999960e+00
-8.211000000000000298e+00
-7.929400000000000226e+00
-8.369500000000000384e+00
-7.870700000000000252e+00
-7.836599999999999788e+00
-7.790700000000000180e+00
-7.706199999999999939e+00
-8.140299999999999869e+00
-8.179899999999999949e+00
-7.902700000000000280e+00
-8.118100000000000094e+00
-7.846199999999999619e+00
-7.624500000000000277e+00
-8.512299999999999756e+00
-7.563699999999999868e+00
-8.400199999999999889e+00
-8.020899999999999253e+00
-8.267400000000000304e+00
-7.843700000000000117e+00
-8.142400000000000304e+00
-8.140399999999999636e+00
-7.916699999999999626e+00
-7.809999999999999609e+00
-8.013899999999999579e+00
-7.847500000000000142e+00
-7.929499999999999993e+00
-7.846700000000000230e+00
-8.252399999999999736e+00
-8.000000000000000000e+00
-8.245100000000000762e+00
-7.999699999999999811e+00
-8.109099999999999753e+00
-7.926099999999999923e+00
-7.789699999999999847e+00
-8.123699999999999477e+00
-7.943900000000000183e+00
-8.054100000000000037e+00
-7.962299999999999933e+00
-8.207599999999999341e+00
-8.228400000000000603e+00
-8.085200000000000387e+00
-8.017099999999999227e+00
-8.242599999999999483e+00
-7.709800000000000431e+00
-8.344300000000000495e+00
-7.730299999999999727e+00
-8.106500000000000483e+00
-8.518900000000000361e+00
-8.067800000000000082e+00
-7.810500000000000220e+00
-7.843099999999999739e+00
-7.805699999999999861e+00
-7.873099999999999987e+00
-8.281399999999999650e+00
-8.012199999999999989e+00
-8.124100000000000321e+00
-7.991600000000000037e+00
-7.698999999999999844e+00
-7.945899999999999963e+00
-8.303100000000000591e+00
-8.060299999999999798e+00
-7.682500000000000107e+00
-7.811099999999999710e+00
-8.169200000000000017e+00
-8.518599999999999284e+00
-8.117599999999999483e+00
-7.764499999999999957e+00
-7.880600000000000271e+00
-8.192199999999999704e+00
-8.162399999999999878e+00
-8.107499999999999929e+00
-7.844000000000000306e+00
-8.171599999999999753e+00
-8.259600000000000719e+00
-7.981499999999999595e+00
-7.752699999999999925e+00
-8.154799999999999827e+00
-7.979300000000000281e+00
-7.787700000000000067e+00
-8.003399999999999181e+00
-7.857999999999999652e+00
-7.906900000000000261e+00
-8.288600000000000634e+00
-8.050900000000000389e+00
-8.120699999999999363e+00
-8.162900000000000489e+00
-8.256399999999999295e+00
-8.361900000000000333e+00
-7.799100000000000144e+00
-8.098699999999999122e+00
-8.122700000000000031e+00
-7.932299999999999685e+00
-7.679899999999999949e+00
-7.994399999999999729e+00
-8.244099999999999540e+00
-7.770299999999999763e+00
-7.883399999999999963e+00
-7.820100000000000051e+00
-8.030799999999999272e+00
-8.438900000000000290e+00
-7.983500000000000263e+00
-7.630200000000000315e+00
-7.686700000000000088e+00
-7.878899999999999793e+00
-7.890399999999999636e+00
-7.696699999999999875e+00
-7.797500000000000320e+00
-8.163000000000000256e+00
-7.750700000000000145e+00
-7.772400000000000198e+00
-7.987400000000000055e+00
-8.557399999999999451e+00
-7.765200000000000102e+00
-7.866500000000000270e+00
-7.837799999999999656e+00
-7.973600000000000243e+00
-8.120200000000000529e+00
-7.712200000000000166e+00
-8.652400000000000091e+00
-8.392500000000000071e+00
-8.199099999999999611e+00
-7.737199999999999633e+00
-7.769700000000000273e+00
-7.974899999999999878e+00
-8.162399999999999878e+00
-7.897800000000000153e+00
-7.713300000000000267e+00
-7.837200000000000166e+00
-8.128899999999999793e+00
-8.123200000000000642e+00
-8.102199999999999847e+00
-8.287800000000000722e+00
-7.954500000000000348e+00
-8.388600000000000279e+00
-8.108499999999999375e+00
-7.889700000000000379e+00
-7.845200000000000173e+00
-8.065200000000000813e+00
-7.897700000000000387e+00
-7.661100000000000243e+00
-7.700599999999999667e+00
-8.107400000000000162e+00
-8.234899999999999665e+00
-7.961000000000000298e+00
-7.810599999999999987e+00
-8.411400000000000432e+00
-7.838099999999999845e+00
-8.184100000000000819e+00
-8.123400000000000176e+00
-8.356799999999999784e+00
-8.037300000000000111e+00
-7.993400000000000283e+00
-7.617300000000000182e+00
-7.845399999999999707e+00
-7.677200000000000024e+00
-8.095000000000000639e+00
-7.760699999999999932e+00
-7.727599999999999802e+00
-7.814400000000000013e+00
-7.827399999999999913e+00
-7.860000000000000320e+00
-8.155099999999999127e+00
-7.868100000000000094e+00
-7.734799999999999898e+00
-7.818399999999999572e+00
-7.929599999999999760e+00
-8.050399999999999778e+00
-7.875000000000000000e+00
-7.803600000000000314e+00
-8.037300000000000111e+00
-8.037300000000000111e+00
-7.914500000000000313e+00
-8.385500000000000398e+00
-8.055600000000000094e+00
-7.731300000000000061e+00
-7.841599999999999682e+00
-7.701600000000000001e+00
-7.986799999999999677e+00
-7.868500000000000050e+00
-8.001099999999999213e+00
-8.042699999999999960e+00
-7.897000000000000242e+00
-7.760200000000000209e+00
-8.025800000000000267e+00
-7.688299999999999912e+00
-8.011599999999999611e+00
-7.706299999999999706e+00
-7.831900000000000084e+00
-7.875200000000000422e+00
-8.069900000000000517e+00
-8.215700000000000003e+00
-7.753000000000000114e+00
-8.114200000000000301e+00
-8.039199999999999235e+00
-8.270099999999999341e+00
-8.139699999999999491e+00
-7.809499999999999886e+00
-8.215400000000000702e+00
-8.319399999999999906e+00
-7.964800000000000324e+00
-7.669299999999999784e+00
-7.644599999999999618e+00
-7.973399999999999821e+00
-8.093400000000000816e+00
-7.600900000000000212e+00
-7.970299999999999940e+00
-8.230299999999999727e+00
-7.815999999999999837e+00
-7.735100000000000087e+00
-7.806099999999999817e+00
-7.674000000000000377e+00
-7.537499999999999645e+00
-7.696299999999999919e+00
-7.628499999999999837e+00
-7.988699999999999690e+00
-7.571799999999999642e+00
-8.042999999999999261e+00
-7.891799999999999926e+00
-7.784699999999999953e+00
-8.481199999999999406e+00
-7.801899999999999835e+00
-7.974199999999999733e+00
-7.975600000000000023e+00
-8.375099999999999767e+00
-8.148099999999999454e+00
-7.869699999999999918e+00
-8.057999999999999829e+00
-8.007400000000000517e+00
-7.898200000000000109e+00
-7.716599999999999682e+00
-7.669100000000000250e+00
-8.441000000000000725e+00
-8.040699999999999292e+00
-8.498699999999999477e+00
-7.881400000000000183e+00
-8.271599999999999397e+00
-7.849199999999999733e+00
-8.068599999999999994e+00
-7.852899999999999991e+00
-8.021399999999999864e+00
-7.805900000000000283e+00
-7.930799999999999628e+00
-8.305999999999999162e+00
-7.873400000000000176e+00
-7.527400000000000091e+00
-7.865700000000000358e+00
-7.643200000000000216e+00
-7.886999999999999567e+00
-8.317099999999999937e+00
-7.879599999999999937e+00
-7.838300000000000267e+00
-8.460100000000000620e+00
-7.763499999999999623e+00
-7.695500000000000007e+00
-8.391400000000000858e+00
-8.277400000000000091e+00
-7.986399999999999721e+00
-7.924000000000000377e+00
-8.084099999999999397e+00
-8.251500000000000057e+00
-7.880899999999999572e+00
-8.122600000000000264e+00
-7.952600000000000335e+00
-8.295600000000000307e+00
-7.817499999999999893e+00
-7.760500000000000398e+00
-7.945899999999999963e+00
-7.905599999999999739e+00
-7.869399999999999729e+00
-8.004400000000000404e+00
-8.239800000000000679e+00
-7.960099999999999731e+00
-7.618100000000000094e+00
-8.067299999999999471e+00
-7.773799999999999599e+00
-7.986100000000000421e+00
-7.685299999999999798e+00
-7.797600000000000087e+00
-7.955899999999999750e+00
-7.927500000000000213e+00
-8.136900000000000688e+00
-8.020799999999999486e+00
-7.981799999999999784e+00
-7.770299999999999763e+00
-7.917500000000000426e+00
-7.803600000000000314e+00
-7.865700000000000358e+00
-7.880099999999999660e+00
-7.879999999999999893e+00
-7.697400000000000020e+00
-7.855400000000000382e+00
-7.786500000000000199e+00
-8.320999999999999730e+00
-8.112700000000000244e+00
-8.272600000000000620e+00
-8.139400000000000190e+00
-8.018599999999999284e+00
-8.083099999999999952e+00
-7.954799999999999649e+00
-8.287200000000000344e+00
-7.582600000000000229e+00
-7.988699999999999690e+00
-7.749399999999999622e+00
-8.152400000000000091e+00
-7.872099999999999653e+00
-8.079200000000000159e+00
-8.268100000000000449e+00
-8.170799999999999841e+00
-7.612800000000000011e+00
-7.801499999999999879e+00
-8.481500000000000483e+00
-8.094699999999999562e+00
-8.220000000000000639e+00
-8.352000000000000313e+00
-7.819700000000000095e+00
-8.266600000000000392e+00
-7.840300000000000047e+00
-7.941900000000000404e+00
-7.854599999999999582e+00
-8.380300000000000082e+00
-7.930100000000000371e+00
-8.274399999999999977e+00
-7.849899999999999878e+00
-7.893900000000000361e+00
-8.399499999999999744e+00
-7.843099999999999739e+00
-7.884699999999999598e+00
-8.120499999999999829e+00
-7.948900000000000077e+00
-7.963400000000000034e+00
-7.873000000000000220e+00
-7.669900000000000162e+00
-8.010600000000000165e+00
-7.818900000000000183e+00
-7.644199999999999662e+00
-7.796700000000000408e+00
-8.406700000000000728e+00
-8.174099999999999255e+00
-7.910599999999999632e+00
-8.161500000000000199e+00
-8.009900000000000020e+00
-7.935399999999999565e+00
-8.040399999999999991e+00
-7.856600000000000250e+00
-8.497299999999999187e+00
-7.950700000000000323e+00
-8.263099999999999667e+00
-8.113400000000000389e+00
-7.694399999999999906e+00
-7.941099999999999604e+00
-8.114699999999999136e+00
-7.698000000000000398e+00
-8.050700000000000855e+00
-8.294600000000000861e+00
-8.196600000000000108e+00
-7.775299999999999656e+00
-8.118900000000000006e+00
-8.025000000000000355e+00
-8.054999999999999716e+00
-7.866799999999999571e+00
-7.883499999999999730e+00
-7.841800000000000104e+00
-7.943800000000000416e+00
-7.605500000000000149e+00
-7.891700000000000159e+00
-8.112999999999999545e+00
-8.123100000000000875e+00
-7.854899999999999771e+00
-7.837699999999999889e+00
-7.966800000000000104e+00
-8.195999999999999730e+00
-8.531399999999999650e+00
-7.917900000000000382e+00
-8.278600000000000847e+00
-8.216300000000000381e+00
-8.113400000000000389e+00
-8.042199999999999349e+00
-7.768600000000000172e+00
-8.067000000000000171e+00
-7.593300000000000161e+00
-7.905300000000000438e+00
-7.938500000000000334e+00
-7.732899999999999885e+00
-8.538700000000000401e+00
-7.733900000000000219e+00
-8.515700000000000713e+00
-7.883099999999999774e+00
-7.890600000000000058e+00
-7.679499999999999993e+00
-7.821200000000000152e+00
-7.942700000000000315e+00
-8.168100000000000804e+00
-8.021499999999999631e+00
-7.750000000000000000e+00
-7.961999999999999744e+00
-7.834500000000000242e+00
-8.357200000000000628e+00
-7.657399999999999984e+00
-7.848099999999999632e+00
-7.695999999999999730e+00
-8.042799999999999727e+00
-7.855100000000000193e+00
-7.889499999999999957e+00
-7.951900000000000190e+00
-7.953100000000000058e+00
-7.551700000000000301e+00
-8.045500000000000540e+00
-7.909600000000000186e+00
-7.858500000000000263e+00
-7.892100000000000115e+00
-8.125099999999999767e+00
-7.957200000000000273e+00
-8.459799999999999542e+00
-7.869500000000000384e+00
-8.084799999999999542e+00
-7.984799999999999898e+00
-7.979800000000000004e+00
-8.031900000000000261e+00
-7.748800000000000132e+00
-8.163600000000000634e+00
-8.080099999999999838e+00
-8.029799999999999827e+00
-7.729300000000000281e+00
-7.667300000000000004e+00
-7.955199999999999605e+00
-8.075499999999999901e+00
-7.884100000000000108e+00
-8.250000000000000000e+00
-7.927999999999999936e+00
-8.139099999999999113e+00
-7.853200000000000180e+00
-7.960399999999999920e+00
-7.829299999999999926e+00
-8.131199999999999761e+00
-7.882600000000000051e+00
-8.143599999999999284e+00
-8.249700000000000699e+00
-7.906399999999999650e+00
-7.840300000000000047e+00
-7.594000000000000306e+00
-8.122999999999999332e+00
-7.867600000000000371e+00
-7.714199999999999946e+00
-7.920300000000000118e+00
-7.827300000000000146e+00
-7.814099999999999824e+00
-7.743699999999999584e+00
-7.952200000000000379e+00
-7.812500000000000000e+00
-7.773600000000000065e+00
-8.016199999999999548e+00
-7.693900000000000183e+00
-8.102000000000000313e+00
-8.033500000000000085e+00
-8.457800000000000651e+00
-7.982700000000000351e+00
-8.044700000000000628e+00
-8.016799999999999926e+00
-7.713599999999999568e+00
-8.192399999999999238e+00
-7.809899999999999842e+00
-7.801999999999999602e+00
-7.784200000000000230e+00
-8.497899999999999565e+00
-7.757900000000000240e+00
-8.208700000000000330e+00
-7.815400000000000347e+00
-7.763799999999999812e+00
-7.942499999999999893e+00
-7.859399999999999942e+00
-7.730900000000000105e+00
-8.135600000000000165e+00
-7.769899999999999807e+00
-8.161099999999999355e+00
-8.004699999999999704e+00
-8.041299999999999670e+00
-8.136200000000000543e+00
-7.991900000000000226e+00
-7.702300000000000146e+00
-8.006000000000000227e+00
-7.815100000000000158e+00
-7.929000000000000270e+00
-8.423099999999999810e+00
-8.315500000000000114e+00
-7.838400000000000034e+00
-7.790099999999999802e+00
-8.132600000000000051e+00
-8.488799999999999457e+00
-7.880700000000000038e+00
-8.071099999999999497e+00
-7.959600000000000009e+00
-8.099299999999999500e+00
-8.118800000000000239e+00
-7.614700000000000024e+00
-8.097799999999999443e+00
-7.923300000000000232e+00
-7.787099999999999689e+00
-7.855800000000000338e+00
-7.893699999999999939e+00
-8.186500000000000554e+00
-7.724300000000000388e+00
-7.795499999999999652e+00
-8.286300000000000665e+00
-7.982800000000000118e+00
-7.913899999999999935e+00
-7.723499999999999588e+00
-7.896300000000000097e+00
-7.664299999999999891e+00
-7.910700000000000287e+00
-7.855500000000000149e+00
-7.671199999999999797e+00
-8.100899999999999324e+00
-7.520599999999999952e+00
-8.173299999999999343e+00
-7.801999999999999602e+00
-7.819200000000000372e+00
-7.980800000000000338e+00
-7.759000000000000341e+00
-7.940500000000000114e+00
-8.066100000000000492e+00
-8.152799999999999159e+00
-7.560900000000000176e+00
-8.031499999999999417e+00
-7.661500000000000199e+00
-7.885500000000000398e+00
-7.927699999999999747e+00
-7.947499999999999787e+00
-7.881700000000000372e+00
-7.822499999999999787e+00
-8.043200000000000571e+00
-7.709200000000000053e+00
-7.643399999999999750e+00
-8.092800000000000438e+00
-7.880899999999999572e+00
-7.825700000000000323e+00
-8.019999999999999574e+00
-8.130399999999999849e+00
-8.299300000000000566e+00
-7.725399999999999601e+00
-8.352700000000000458e+00
-8.363599999999999923e+00
-8.479400000000000048e+00
-8.305899999999999395e+00
-7.706000000000000405e+00
-7.758499999999999730e+00
-8.300900000000000389e+00
-8.373300000000000409e+00
-8.226300000000000168e+00
-7.929100000000000037e+00
-8.348800000000000665e+00
-7.764000000000000234e+00
-8.420400000000000773e+00
-7.843200000000000394e+00
-7.812800000000000189e+00
-7.646499999999999631e+00
-7.965499999999999581e+00
-8.021300000000000097e+00
-7.990000000000000213e+00
-8.148999999999999133e+00
-8.206099999999999284e+00
-7.835700000000000109e+00
-8.220900000000000318e+00
-8.052599999999999980e+00
-8.044700000000000628e+00
-8.473300000000000054e+00
-8.148999999999999133e+00
-7.688100000000000378e+00
-7.530899999999999928e+00
-8.215799999999999770e+00
-8.243499999999999162e+00
-7.610500000000000043e+00
-7.813399999999999679e+00
-8.229100000000000747e+00
-7.770800000000000374e+00
-7.581900000000000084e+00
-8.015800000000000480e+00
-8.270200000000000884e+00
-7.802999999999999936e+00
-8.103600000000000136e+00
-7.880399999999999849e+00
-7.651600000000000179e+00
-7.693100000000000271e+00
-7.899399999999999977e+00
-7.585600000000000342e+00
-8.347200000000000841e+00
-7.773600000000000065e+00
-8.219799999999999329e+00
-7.571699999999999875e+00
-7.765299999999999869e+00
-8.061400000000000787e+00
-7.738199999999999967e+00
-7.815400000000000347e+00
-7.816799999999999748e+00
-7.873800000000000132e+00
-8.319499999999999673e+00
-7.633499999999999730e+00
-7.985500000000000043e+00
-7.958300000000000374e+00
-8.338400000000000034e+00
-7.943399999999999572e+00
-8.153200000000000003e+00
-7.947000000000000064e+00
-7.737300000000000288e+00
-7.795300000000000118e+00
-8.540200000000000458e+00
-7.672600000000000087e+00
-8.051600000000000534e+00
-7.921400000000000219e+00
-8.174200000000000799e+00
-8.520699999999999719e+00
-7.944399999999999906e+00
-7.853100000000000414e+00
-7.848399999999999821e+00
-8.512299999999999756e+00
-7.935800000000000409e+00
-8.081699999999999662e+00
-7.658500000000000085e+00
-7.929000000000000270e+00
-7.924599999999999866e+00
-7.892999999999999794e+00
-7.915799999999999947e+00
-8.046799999999999287e+00
-7.832300000000000040e+00
-7.857700000000000351e+00
-7.855500000000000149e+00
-8.088100000000000733e+00
-8.140000000000000568e+00
-8.224899999999999878e+00
-8.402699999999999392e+00
-7.925399999999999778e+00
-7.933300000000000018e+00
-8.203200000000000713e+00
-7.686099999999999710e+00
-8.461100000000000065e+00
-8.071500000000000341e+00
-7.873800000000000132e+00
-7.794800000000000395e+00
-8.329700000000000770e+00
-7.896899999999999586e+00
-7.804400000000000226e+00
-7.900299999999999656e+00
-8.262399999999999523e+00
-7.851300000000000168e+00
-8.207200000000000273e+00
-8.208199999999999719e+00
-7.657700000000000173e+00
-8.402400000000000091e+00
-7.808699999999999974e+00
-7.958700000000000330e+00
-8.166600000000000747e+00
-8.268299999999999983e+00
-8.048000000000000043e+00
-7.823699999999999655e+00
-7.756700000000000372e+00
-8.423299999999999343e+00
-8.047599999999999199e+00
-7.846199999999999619e+00
-7.769199999999999662e+00
-8.071300000000000807e+00
-8.112999999999999545e+00
-7.917500000000000426e+00
-7.726799999999999891e+00
-8.416800000000000281e+00
-8.462699999999999889e+00
-7.906600000000000072e+00
-8.105299999999999727e+00
-8.039500000000000313e+00
-8.107300000000000395e+00
-7.951299999999999812e+00
-7.953100000000000058e+00
-7.689499999999999780e+00
-8.191300000000000026e+00
-7.739300000000000068e+00
-8.014300000000000423e+00
-7.667799999999999727e+00
-7.590300000000000047e+00
-7.872300000000000075e+00
-7.980900000000000105e+00
-7.978299999999999947e+00
-8.060399999999999565e+00
-8.116699999999999804e+00
-8.479799999999999116e+00
-8.197900000000000631e+00
-7.816699999999999982e+00
-8.069000000000000838e+00
-7.931600000000000428e+00
-7.977000000000000313e+00
-8.002599999999999270e+00
-7.633600000000000385e+00
-7.936300000000000132e+00
-7.787700000000000067e+00
-7.642199999999999882e+00
-7.557199999999999918e+00
-7.914299999999999891e+00
-7.858799999999999564e+00
-8.223200000000000287e+00
-8.506999999999999673e+00
-8.537499999999999645e+00
-7.759199999999999875e+00
-7.399799999999999933e+00
-7.813900000000000290e+00
-7.903999999999999915e+00
-7.982000000000000206e+00
-8.415200000000000458e+00
-7.776699999999999946e+00
-8.060200000000000031e+00
-7.957699999999999996e+00
-8.209400000000000475e+00
-7.858100000000000307e+00
-7.838199999999999612e+00
-8.084899999999999309e+00
-8.333700000000000330e+00
-8.589600000000000790e+00
-7.760100000000000442e+00
-7.948699999999999655e+00
-8.351699999999999235e+00
-7.835499999999999687e+00
-7.917699999999999960e+00
-8.092000000000000526e+00
-8.238599999999999923e+00
-7.753700000000000259e+00
-8.491199999999999193e+00
-7.659600000000000186e+00
-8.387100000000000222e+00
-8.282299999999999329e+00
-7.932199999999999918e+00
-8.195299999999999585e+00
-7.882200000000000095e+00
-8.238799999999999457e+00
-7.854199999999999626e+00
-8.238500000000000156e+00
-8.044999999999999929e+00
-7.769700000000000273e+00
-7.917600000000000193e+00
-8.121299999999999741e+00
-7.748899999999999899e+00
-7.914699999999999847e+00
-8.359799999999999898e+00
-7.880399999999999849e+00
-7.880399999999999849e+00
-7.786900000000000155e+00
-7.987499999999999822e+00
-7.795200000000000351e+00
-7.728200000000000180e+00
-8.133900000000000574e+00
-7.835499999999999687e+00
-8.186099999999999710e+00
-7.827200000000000379e+00
-8.203500000000000014e+00
-8.337099999999999511e+00
-7.932299999999999685e+00
-8.025499999999999190e+00
-7.976300000000000168e+00
-7.780100000000000016e+00
-7.788199999999999790e+00
-8.297800000000000509e+00
-7.904099999999999682e+00
-8.072900000000000631e+00
-8.335900000000000531e+00
-8.217499999999999361e+00
-8.052400000000000446e+00
-7.822099999999999831e+00
-7.764700000000000379e+00
-7.738599999999999923e+00
-7.816799999999999748e+00
-8.094200000000000728e+00
-8.310900000000000176e+00
-8.251200000000000756e+00
-8.207100000000000506e+00
-7.800099999999999589e+00
-7.617600000000000371e+00
-7.696100000000000385e+00
-8.054500000000000881e+00
-7.981600000000000250e+00
-7.703500000000000014e+00
-7.713700000000000223e+00
-8.001099999999999213e+00
-7.948800000000000310e+00
-7.387699999999999712e+00
-7.775400000000000311e+00
-7.881800000000000139e+00
-8.398199999999999221e+00
-7.910199999999999676e+00
-8.064500000000000668e+00
-7.593300000000000161e+00
-8.022299999999999542e+00
-7.995099999999999874e+00
-7.727500000000000036e+00
-7.864399999999999835e+00
-7.799599999999999866e+00
-8.050000000000000711e+00
-7.501900000000000013e+00
-7.992799999999999905e+00
-8.092900000000000205e+00
-8.111800000000000566e+00
-7.677500000000000213e+00
-7.852400000000000269e+00
-8.236200000000000188e+00
-7.670700000000000074e+00
-7.687100000000000044e+00
-8.048600000000000421e+00
-8.150800000000000267e+00
-8.142799999999999372e+00
-8.314099999999999824e+00
-8.277499999999999858e+00
-8.040699999999999292e+00
-7.772300000000000431e+00
-8.456400000000000361e+00
-7.722000000000000419e+00
-8.556200000000000472e+00
-7.804800000000000182e+00
-7.735299999999999621e+00
-7.866600000000000037e+00
-7.934700000000000308e+00
-7.870800000000000018e+00
-7.906900000000000261e+00
-7.881300000000000416e+00
-7.917200000000000237e+00
-7.775999999999999801e+00
-7.940500000000000114e+00
-7.707099999999999618e+00
-7.925200000000000244e+00
-8.203300000000000480e+00
-8.024900000000000588e+00
-8.495900000000000674e+00
-7.794299999999999784e+00
-7.943100000000000271e+00
-7.953700000000000436e+00
-8.550000000000000711e+00
-7.996000000000000441e+00
-7.777000000000000135e+00
-8.314099999999999824e+00
-7.972699999999999676e+00
-7.885500000000000398e+00
-7.985199999999999854e+00
-7.904700000000000060e+00
-8.005699999999999150e+00
-8.029099999999999682e+00
-7.481700000000000017e+00
-8.314199999999999591e+00
-7.852800000000000225e+00
-7.875600000000000378e+00
-8.044900000000000162e+00
-7.948699999999999655e+00
-7.979700000000000237e+00
-7.769499999999999851e+00
-7.776299999999999990e+00
-7.801899999999999835e+00
-8.127000000000000668e+00
-7.989499999999999602e+00
-7.695500000000000007e+00
-8.169700000000000628e+00
-7.876199999999999868e+00
-8.233599999999999142e+00
-8.001300000000000523e+00
-7.954299999999999926e+00
-7.700400000000000134e+00
-8.446699999999999875e+00
-8.084899999999999309e+00
-7.960600000000000342e+00
-8.163800000000000168e+00
-8.012600000000000833e+00
-7.694099999999999717e+00
-7.785000000000000142e+00
-7.922900000000000276e+00
-8.043699999999999406e+00
-7.676999999999999602e+00
-7.815000000000000391e+00
-7.815800000000000303e+00
-7.961800000000000210e+00
-8.138199999999999434e+00
-8.342900000000000205e+00
-8.526999999999999247e+00
-7.903599999999999959e+00
-7.720100000000000406e+00
-8.632899999999999352e+00
-7.918899999999999828e+00
-8.280900000000000816e+00
-8.309200000000000585e+00
-8.145699999999999719e+00
-8.195499999999999119e+00
-7.857099999999999973e+00
-8.021200000000000330e+00
-7.888099999999999667e+00
-7.986699999999999910e+00
-8.289199999999999235e+00
-7.781200000000000117e+00
-8.118900000000000006e+00
-8.071600000000000108e+00
-7.630499999999999616e+00
-7.863599999999999923e+00
-8.260400000000000631e+00
-7.957499999999999574e+00
-7.976700000000000124e+00
-8.324600000000000222e+00
-7.728200000000000180e+00
-7.962399999999999700e+00
-7.740499999999999936e+00
-8.367200000000000415e+00
-7.962399999999999700e+00
-7.891399999999999970e+00
-8.047399999999999665e+00
-8.194100000000000605e+00
-7.808900000000000396e+00
-7.923199999999999577e+00
-7.716700000000000337e+00
-8.183299999999999130e+00
-8.099899999999999878e+00
-8.131700000000000372e+00
-7.677800000000000402e+00
-7.698599999999999888e+00
-7.886800000000000033e+00
-8.322599999999999554e+00
-7.894199999999999662e+00
-7.956500000000000128e+00
-7.886999999999999567e+00
-8.149800000000000821e+00
-7.918000000000000149e+00
-8.404700000000000060e+00
-7.437000000000000277e+00
-7.872499999999999609e+00
-8.436199999999999477e+00
-7.990499999999999936e+00
-7.433300000000000018e+00
-8.212199999999999278e+00
-8.004699999999999704e+00
-8.140399999999999636e+00
-8.099800000000000111e+00
-8.095100000000000406e+00
-8.386200000000000543e+00
-7.745199999999999640e+00
-8.212300000000000821e+00
-8.068300000000000693e+00
-8.362700000000000244e+00
-8.131199999999999761e+00
-7.657600000000000406e+00
-8.305799999999999628e+00
-8.243399999999999395e+00
-7.796999999999999709e+00
-7.994699999999999918e+00
-7.979000000000000092e+00
-8.071099999999999497e+00
-8.186099999999999710e+00
-8.490800000000000125e+00
-8.187300000000000466e+00
-8.428699999999999193e+00
-8.038800000000000168e+00
-8.308600000000000207e+00
-8.001500000000000057e+00
-7.720399999999999707e+00
-7.619699999999999918e+00
-7.809700000000000308e+00
-8.062900000000000844e+00
-8.456799999999999429e+00
-7.824900000000000411e+00
-8.061700000000000088e+00
-8.302199999999999136e+00
-7.884699999999999598e+00
-8.136200000000000543e+00
-7.779099999999999682e+00
-8.329800000000000537e+00
-7.651399999999999757e+00
-7.853600000000000136e+00
-8.133499999999999730e+00
-8.156200000000000117e+00
-8.028999999999999915e+00
-8.188299999999999912e+00
-8.113500000000000156e+00
-8.469099999999999184e+00
-8.341699999999999449e+00
-7.988400000000000389e+00
-8.141899999999999693e+00
-7.764400000000000190e+00
-7.972500000000000142e+00
-7.955899999999999750e+00
-7.724999999999999645e+00
-7.915300000000000225e+00
-8.161599999999999966e+00
-8.032299999999999329e+00
-8.166299999999999670e+00
-8.116500000000000270e+00
-8.030799999999999272e+00
-7.739300000000000068e+00
-7.925099999999999589e+00
-7.976300000000000168e+00
-8.407400000000000873e+00
-8.533699999999999619e+00
-7.933900000000000396e+00
-8.372099999999999653e+00
-8.164600000000000080e+00
-7.863299999999999734e+00
-7.745800000000000018e+00
-8.322300000000000253e+00
-8.081599999999999895e+00
-7.818100000000000271e+00
-7.772300000000000431e+00
-7.859799999999999898e+00
-7.940000000000000391e+00
-7.521600000000000286e+00
-7.999200000000000088e+00
-7.841000000000000192e+00
-8.062500000000000000e+00
-8.085599999999999454e+00
-8.107100000000000861e+00
-8.448800000000000310e+00
-7.898900000000000254e+00
-8.246999999999999886e+00
-7.429199999999999804e+00
-7.861900000000000333e+00
-7.767800000000000260e+00
-8.303900000000000503e+00
-8.182600000000000762e+00
-7.837699999999999889e+00
-7.979499999999999815e+00
-7.808699999999999974e+00
-7.816399999999999793e+00
-8.051199999999999690e+00
-8.096799999999999997e+00
-8.419499999999999318e+00
-8.103099999999999525e+00
-7.806600000000000428e+00
-8.009199999999999875e+00
-7.828400000000000247e+00
-8.140900000000000247e+00
-7.669400000000000439e+00
-8.128500000000000725e+00
-8.394999999999999574e+00
-7.725100000000000300e+00
-8.025800000000000267e+00
-7.880399999999999849e+00
-8.471099999999999852e+00
-7.668400000000000105e+00
-7.805299999999999905e+00
-7.770699999999999719e+00
-8.218299999999999272e+00
-8.141199999999999548e+00
-8.423199999999999577e+00
-7.844400000000000261e+00
-7.817499999999999893e+00
-7.971199999999999619e+00
-8.385799999999999699e+00
-7.993000000000000327e+00
-7.939099999999999824e+00
-7.865599999999999703e+00
-8.636900000000000688e+00
-7.876500000000000057e+00
-7.710600000000000342e+00
-7.701100000000000279e+00
-7.912600000000000300e+00
-8.185700000000000642e+00
-7.839400000000000368e+00
-7.728299999999999947e+00
-7.567800000000000082e+00
-7.743599999999999817e+00
-7.926800000000000068e+00
-7.820000000000000284e+00
-8.330299999999999372e+00
-8.016199999999999548e+00
-7.706800000000000317e+00
-8.074899999999999523e+00
-7.839900000000000091e+00
-7.889700000000000379e+00
-8.166499999999999204e+00
-8.467800000000000438e+00
-7.650900000000000034e+00
-7.774099999999999788e+00
-7.974599999999999689e+00
-7.816300000000000026e+00
-8.045700000000000074e+00
-7.938100000000000378e+00
-8.389099999999999113e+00
-7.683399999999999785e+00
-7.908999999999999808e+00
-7.990700000000000358e+00
-7.654200000000000337e+00
-7.951600000000000001e+00
-7.750000000000000000e+00
-8.105000000000000426e+00
-8.127299999999999969e+00
-7.819700000000000095e+00
-7.747499999999999609e+00
-7.706900000000000084e+00
-7.889400000000000190e+00
-8.287599999999999412e+00
-7.873199999999999754e+00
-7.699099999999999611e+00
-7.911200000000000010e+00
-8.490299999999999514e+00
-8.263899999999999579e+00
-7.955300000000000260e+00
-7.768500000000000405e+00
-7.923700000000000188e+00
-8.064199999999999591e+00
-8.199799999999999756e+00
-8.201299999999999812e+00
-7.611500000000000377e+00
-8.014599999999999724e+00
-8.414699999999999847e+00
-7.944499999999999673e+00
-7.906100000000000350e+00
-7.782399999999999984e+00
-7.851899999999999658e+00
-8.132199999999999207e+00
-8.112800000000000011e+00
-8.214399999999999480e+00
-7.852800000000000225e+00
-7.802699999999999747e+00
-7.756700000000000372e+00
-7.855000000000000426e+00
-8.278999999999999915e+00
-8.045899999999999608e+00
-8.307800000000000296e+00
-7.606600000000000250e+00
-7.773100000000000342e+00
-8.047599999999999199e+00
-8.088699999999999335e+00
-7.516799999999999926e+00
-7.930500000000000327e+00
-8.163999999999999702e+00
-7.875399999999999956e+00
-8.048999999999999488e+00
-8.233200000000000074e+00
-8.051399999999999224e+00
-7.713599999999999568e+00
-8.504799999999999471e+00
-7.975799999999999557e+00
-7.794400000000000439e+00
-7.823599999999999888e+00
-7.934099999999999930e+00
-7.977199999999999847e+00
-8.054999999999999716e+00
-7.705700000000000216e+00
-7.921999999999999709e+00
-7.850799999999999557e+00
-7.955799999999999983e+00
-8.320700000000000429e+00
-8.202999999999999403e+00
-8.367100000000000648e+00
-7.931899999999999729e+00
-7.682400000000000340e+00
-8.176700000000000301e+00
-8.006399999999999295e+00
-7.669500000000000206e+00
-8.517200000000000770e+00
-7.989700000000000024e+00
-8.211999999999999744e+00
-7.773100000000000342e+00
-7.833700000000000330e+00
-7.954299999999999926e+00
-8.528800000000000381e+00
-7.735699999999999577e+00
-8.044800000000000395e+00
-7.560699999999999754e+00
-7.592900000000000205e+00
-7.687899999999999956e+00
-7.597299999999999720e+00
-8.106999999999999318e+00
-7.653900000000000148e+00
-8.300900000000000389e+00
-7.616600000000000037e+00
-7.867799999999999905e+00
-7.865899999999999892e+00
-8.062500000000000000e+00
-8.304000000000000270e+00
-7.923000000000000043e+00
-8.084799999999999542e+00
-7.814400000000000013e+00
-7.911599999999999966e+00
-7.987300000000000288e+00
-7.794800000000000395e+00
-8.108900000000000219e+00
-8.205600000000000449e+00
-7.702899999999999636e+00
-8.630800000000000693e+00
-7.709500000000000242e+00
-7.991200000000000081e+00
-7.790499999999999758e+00
-8.155900000000000816e+00
-8.155400000000000205e+00
-8.512399999999999523e+00
-8.063900000000000290e+00
-8.096000000000000085e+00
-7.583700000000000330e+00
-8.384700000000000486e+00
-7.864899999999999558e+00
-7.815800000000000303e+00
-7.817700000000000315e+00
-7.790799999999999947e+00
-8.017200000000000770e+00
-8.420799999999999841e+00
-8.403600000000000847e+00
-8.171900000000000830e+00
-7.851099999999999746e+00
-8.267200000000000770e+00
-7.903200000000000003e+00
-8.102999999999999758e+00
-7.971899999999999764e+00
-7.785999999999999588e+00
-8.026500000000000412e+00
-7.979400000000000048e+00
-7.728200000000000180e+00
-7.894700000000000273e+00
-8.053599999999999426e+00
-7.612300000000000288e+00
-8.051600000000000534e+00
-7.724000000000000199e+00
-7.945100000000000051e+00
-8.060700000000000642e+00
-8.092999999999999972e+00
-8.022100000000000009e+00
-7.623800000000000132e+00
-7.874500000000000277e+00
-8.193400000000000460e+00
-7.633499999999999730e+00
-8.284599999999999298e+00
-7.920099999999999696e+00
-7.862499999999999822e+00
-7.743699999999999584e+00
-8.088200000000000500e+00
-7.991399999999999615e+00
-8.273699999999999832e+00
-7.685200000000000031e+00
-8.042199999999999349e+00
-7.931199999999999584e+00
-7.662899999999999601e+00
-8.090299999999999159e+00
-8.573399999999999466e+00
-8.458299999999999486e+00
-8.225799999999999557e+00
-7.695299999999999585e+00
-7.931799999999999962e+00
-8.050200000000000244e+00
-8.281399999999999650e+00
-8.281900000000000261e+00
-7.924100000000000144e+00
-8.015200000000000102e+00
-7.883899999999999686e+00
-7.951500000000000234e+00
-7.717500000000000249e+00
-7.863299999999999734e+00
-7.757399999999999629e+00
-7.665700000000000180e+00
-8.196899999999999409e+00
-8.027699999999999392e+00
-7.934599999999999653e+00
-8.275999999999999801e+00
-7.803300000000000125e+00
-7.876000000000000334e+00
-7.936399999999999899e+00
-7.711199999999999832e+00
-7.887400000000000411e+00
-7.892999999999999794e+00
-7.589299999999999713e+00
-7.869200000000000195e+00
-8.114399999999999835e+00
-7.961700000000000443e+00
-7.633099999999999774e+00
-7.878199999999999648e+00
-8.495599999999999596e+00
-8.182299999999999685e+00
-8.204299999999999926e+00
-7.673300000000000232e+00
-7.805399999999999672e+00
-7.754500000000000171e+00
-8.089299999999999713e+00
-7.924900000000000055e+00
-8.263799999999999812e+00
-8.026099999999999568e+00
-7.773900000000000254e+00
-7.812999999999999723e+00
-8.466799999999999216e+00
-7.740000000000000213e+00
-7.866399999999999615e+00
-8.424799999999999400e+00
-7.679100000000000037e+00
-8.189799999999999969e+00
-7.983200000000000074e+00
-8.127599999999999270e+00
-7.630399999999999849e+00
-7.754100000000000215e+00
-7.926400000000000112e+00
-7.876900000000000013e+00
-7.880300000000000082e+00
-7.551899999999999835e+00
-7.940999999999999837e+00
-8.234099999999999753e+00
-7.741699999999999804e+00
-8.038800000000000168e+00
-8.090099999999999625e+00
-7.838499999999999801e+00
-8.010600000000000165e+00
-7.676800000000000068e+00
-7.756800000000000139e+00
-8.133599999999999497e+00
-8.214800000000000324e+00
-7.816699999999999982e+00
-8.520500000000000185e+00
-7.972400000000000375e+00
-8.082200000000000273e+00
-7.873199999999999754e+00
-7.820800000000000196e+00
-7.666400000000000325e+00
-7.727100000000000080e+00
-7.646899999999999586e+00
-7.754100000000000215e+00
-8.234500000000000597e+00
-7.795700000000000074e+00
-7.846099999999999852e+00
-7.886700000000000266e+00
-8.680199999999999250e+00
-8.395500000000000185e+00
-7.803799999999999848e+00
-7.991900000000000226e+00
-7.993199999999999861e+00
-8.051500000000000767e+00
-8.018900000000000361e+00
-7.681300000000000239e+00
-8.152100000000000790e+00
-7.814000000000000057e+00
-7.863100000000000200e+00
-7.781299999999999883e+00
-7.779600000000000293e+00
-7.792300000000000004e+00
-7.672500000000000320e+00
-7.872300000000000075e+00
-7.885699999999999932e+00
-7.893299999999999983e+00
-8.293300000000000338e+00
-8.019299999999999429e+00
-8.305199999999999250e+00
-8.167799999999999727e+00
-7.996900000000000119e+00
-7.763899999999999579e+00
-8.622799999999999798e+00
-7.997200000000000308e+00
-8.011300000000000310e+00
-8.168699999999999406e+00
-7.570199999999999818e+00
-7.755700000000000038e+00
-8.031599999999999184e+00
-8.331300000000000594e+00
-8.277100000000000790e+00
-8.203099999999999170e+00
-8.099999999999999645e+00
-7.731099999999999639e+00
-8.342599999999999127e+00
-8.425300000000000011e+00
-7.904300000000000104e+00
-7.424999999999999822e+00
-7.838499999999999801e+00
-8.042199999999999349e+00
-8.053599999999999426e+00
-8.195100000000000051e+00
-7.712699999999999889e+00
-7.925900000000000389e+00
-7.921299999999999564e+00
-8.357300000000000395e+00
-8.081200000000000827e+00
-8.449199999999999378e+00
-8.129799999999999471e+00
-7.776500000000000412e+00
-8.388700000000000045e+00
-7.796000000000000263e+00
-8.364499999999999602e+00
-8.200300000000000367e+00
-7.813299999999999912e+00
-7.704900000000000304e+00
-7.834299999999999820e+00
-7.914699999999999847e+00
-7.572199999999999598e+00
-8.154500000000000526e+00
-7.907499999999999751e+00
-7.824600000000000222e+00
-8.305300000000000793e+00
-7.863100000000000200e+00
-7.911500000000000199e+00
-8.098499999999999588e+00
-7.776500000000000412e+00
-7.661500000000000199e+00
-7.792600000000000193e+00
-8.259299999999999642e+00
-7.996699999999999697e+00
-7.960700000000000109e+00
-8.117599999999999483e+00
-8.199999999999999289e+00
-7.992899999999999672e+00
-8.048999999999999488e+00
-7.977400000000000269e+00
-7.925099999999999589e+00
-8.071300000000000807e+00
-8.528200000000000003e+00
-8.055799999999999628e+00
-7.889100000000000001e+00
-7.839299999999999713e+00
-7.816399999999999793e+00
-8.350600000000000023e+00
-7.791400000000000325e+00
-7.542600000000000193e+00
-7.823599999999999888e+00
-7.684800000000000075e+00
-7.757900000000000240e+00
-8.023799999999999599e+00
-7.600200000000000067e+00
-7.897100000000000009e+00
-8.157500000000000639e+00
-7.835600000000000342e+00
-8.155400000000000205e+00
-7.775800000000000267e+00
-8.182499999999999218e+00
-7.967999999999999972e+00
-7.679800000000000182e+00
-7.596099999999999852e+00
-7.840499999999999581e+00
-7.958999999999999631e+00
-8.253999999999999559e+00
-7.966400000000000148e+00
-7.970299999999999940e+00
-7.701900000000000190e+00
-7.991999999999999993e+00
-7.745899999999999785e+00
-8.193899999999999295e+00
-8.192600000000000549e+00
-7.941499999999999559e+00
-7.903100000000000236e+00
-7.857700000000000351e+00
-7.908199999999999896e+00
-7.902099999999999902e+00
-7.736200000000000188e+00
-7.859300000000000175e+00
-7.766300000000000203e+00
-8.090099999999999625e+00
-7.770599999999999952e+00
-7.540499999999999758e+00
-7.686099999999999710e+00
-7.889599999999999724e+00
-7.376299999999999635e+00
-8.034200000000000230e+00
-7.572799999999999976e+00
-8.026899999999999480e+00
-8.126300000000000523e+00
-7.922900000000000276e+00
-7.580700000000000216e+00
-8.477000000000000313e+00
-8.383200000000000429e+00
-7.610599999999999810e+00
-7.702300000000000146e+00
-7.895900000000000141e+00
-7.801000000000000156e+00
-7.990499999999999936e+00
-7.893900000000000361e+00
-7.899899999999999700e+00
-8.036699999999999733e+00
-7.758099999999999774e+00
-8.052799999999999514e+00
-8.069699999999999207e+00
-7.983500000000000263e+00
-8.285399999999999210e+00
-7.670499999999999652e+00
-7.766099999999999781e+00
-7.884699999999999598e+00
-7.984099999999999753e+00
-7.828500000000000014e+00
-7.823999999999999844e+00
-7.722800000000000331e+00
-8.401400000000000645e+00
-7.845500000000000362e+00
-7.932000000000000384e+00
-8.041000000000000369e+00
-8.010999999999999233e+00
-7.891499999999999737e+00
-8.242900000000000560e+00
-8.285700000000000287e+00
-8.283899999999999153e+00
-7.990700000000000358e+00
-7.810800000000000409e+00
-7.900900000000000034e+00
-7.924500000000000099e+00
-7.874699999999999811e+00
-7.938299999999999912e+00
-8.046799999999999287e+00
-7.868100000000000094e+00
-8.396599999999999397e+00
-8.361399999999999721e+00
-7.915899999999999714e+00
-7.974899999999999878e+00
-7.783999999999999808e+00
-7.816600000000000215e+00
-7.902400000000000091e+00
-7.985800000000000232e+00
-8.196999999999999176e+00
-7.897400000000000198e+00
-7.586800000000000210e+00
-8.288199999999999790e+00
-7.699900000000000411e+00
-8.295500000000000540e+00
-8.036899999999999267e+00
-7.886999999999999567e+00
-7.542099999999999582e+00
-7.658800000000000274e+00
-7.800300000000000011e+00
-7.806799999999999962e+00
-7.619500000000000384e+00
-8.115000000000000213e+00
-8.467800000000000438e+00
-8.140000000000000568e+00
-8.121399999999999508e+00
-7.881400000000000183e+00
-8.122799999999999798e+00
-7.881400000000000183e+00
-7.976399999999999935e+00
-7.419900000000000162e+00
-7.825300000000000367e+00
-8.082100000000000506e+00
-7.657300000000000217e+00
-7.883000000000000007e+00
-7.754199999999999982e+00
-8.170899999999999608e+00
-8.098000000000000753e+00
-8.090999999999999304e+00
-8.087899999999999423e+00
-8.450699999999999434e+00
-8.228300000000000836e+00
-7.840900000000000425e+00
-8.051099999999999923e+00
-7.731399999999999828e+00
-7.844999999999999751e+00
-7.948999999999999844e+00
-8.282999999999999474e+00
-8.357400000000000162e+00
-8.085699999999999221e+00
-8.291800000000000281e+00
-7.803899999999999615e+00
-7.853799999999999670e+00
-7.706900000000000084e+00
-7.831299999999999706e+00
-8.175700000000000855e+00
-7.754500000000000171e+00
-7.990800000000000125e+00
-8.298600000000000421e+00
-7.967500000000000249e+00
-8.174300000000000566e+00
-7.853799999999999670e+00
-7.725999999999999979e+00
-8.053100000000000591e+00
-7.936700000000000088e+00
-8.198100000000000165e+00
-8.088200000000000500e+00
-7.913800000000000168e+00
-7.564300000000000246e+00
-8.493399999999999395e+00
-7.771499999999999631e+00
-7.934099999999999930e+00
-8.200400000000000134e+00
-8.052500000000000213e+00
-8.035700000000000287e+00
-7.889000000000000234e+00
-8.192500000000000782e+00
-7.911500000000000199e+00
-7.743800000000000239e+00
-8.121999999999999886e+00
-7.709299999999999820e+00
-7.996500000000000163e+00
-7.926999999999999602e+00
-7.965099999999999625e+00
-8.006700000000000372e+00
-7.558900000000000396e+00
-7.640699999999999825e+00
-7.912600000000000300e+00
-7.567899999999999849e+00
-7.697000000000000064e+00
-8.167600000000000193e+00
-8.317600000000000549e+00
-8.016000000000000014e+00
-8.097799999999999443e+00
-7.566499999999999559e+00
-8.091699999999999449e+00
-7.938500000000000334e+00
-8.304299999999999571e+00
-7.909500000000000419e+00
-7.804599999999999760e+00
-8.138600000000000279e+00
-7.901500000000000412e+00
-7.823100000000000165e+00
-8.009199999999999875e+00
-7.760799999999999699e+00
-7.733799999999999564e+00
-8.022600000000000620e+00
-7.769899999999999807e+00
-8.148600000000000065e+00
-8.016899999999999693e+00
-7.777800000000000047e+00
-7.749299999999999855e+00
-7.744399999999999729e+00
-7.701200000000000045e+00
-7.959900000000000198e+00
-8.350899999999999324e+00
-8.073299999999999699e+00
-7.677999999999999936e+00
-8.186400000000000787e+00
-8.444000000000000838e+00
-8.331300000000000594e+00
-8.412100000000000577e+00
-7.982300000000000395e+00
-7.968799999999999883e+00
-8.013600000000000279e+00
-7.878700000000000259e+00
-7.486399999999999721e+00
-7.910000000000000142e+00
-7.569700000000000095e+00
-7.708000000000000185e+00
-7.891099999999999781e+00
-7.875799999999999912e+00
-8.111100000000000421e+00
-8.107200000000000628e+00
-8.057000000000000384e+00
-8.325900000000000745e+00
-7.590300000000000047e+00
-8.242300000000000182e+00
-7.829600000000000115e+00
-7.849499999999999922e+00
-8.116400000000000503e+00
-7.571200000000000152e+00
-7.883099999999999774e+00
-8.047599999999999199e+00
-8.008399999999999963e+00
-7.930699999999999861e+00
-7.778299999999999770e+00
-8.171900000000000830e+00
-8.068300000000000693e+00
-8.100400000000000489e+00
-7.722599999999999909e+00
-7.859399999999999942e+00
-7.781900000000000261e+00
-7.645299999999999763e+00
-8.026999999999999247e+00
-8.058099999999999596e+00
-7.845299999999999940e+00
-7.906299999999999883e+00
-8.034200000000000230e+00
-7.984799999999999898e+00
-8.087400000000000588e+00
-7.828599999999999781e+00
-7.619799999999999685e+00
-7.985800000000000232e+00
-8.006800000000000139e+00
-8.284900000000000375e+00
-8.076800000000000423e+00
-7.773299999999999876e+00
-8.033599999999999852e+00
-7.789100000000000357e+00
-7.613400000000000389e+00
-7.704500000000000348e+00
-7.679800000000000182e+00
-8.005300000000000082e+00
-8.186999999999999389e+00
-7.854700000000000237e+00
-8.182000000000000384e+00
-7.740199999999999747e+00
-8.068699999999999761e+00
-8.009700000000000486e+00
-7.673199999999999577e+00
-8.448800000000000310e+00
-7.953199999999999825e+00
-8.054299999999999571e+00
-7.746000000000000441e+00
-8.228999999999999204e+00
-7.674900000000000055e+00
-7.915099999999999802e+00
-7.895800000000000374e+00
-7.948000000000000398e+00
-8.026999999999999247e+00
-7.881400000000000183e+00
-8.403299999999999770e+00
-8.634999999999999787e+00
-8.155699999999999505e+00
-7.825899999999999856e+00
-7.959699999999999775e+00
-7.715399999999999814e+00
-8.044600000000000861e+00
-8.233599999999999142e+00
-8.093899999999999650e+00
-7.944499999999999673e+00
-8.401899999999999480e+00
-8.324999999999999289e+00
-7.742099999999999760e+00
