9.054968700000000581e+01
7.993897699999999418e+01
7.189705499999999461e+01
8.177203900000000658e+01
8.424528999999999712e+01
8.292584399999999789e+01
7.781271499999999719e+01
8.459928999999999633e+01
7.259098400000000595e+01
7.865758599999999490e+01
6.862429899999999350e+01
8.118131800000000453e+01
7.759986600000000578e+01
8.158743200000000684e+01
7.281328299999999842e+01
8.976205099999999959e+01
8.218203400000000158e+01
8.789630800000000477e+01
9.367749499999999330e+01
8.363768299999999556e+01
9.195686399999999594e+01
8.562209599999999909e+01
8.333046199999999715e+01
9.333436700000000030e+01
8.370137599999999622e+01
8.451009000000000526e+01
7.867090500000000475e+01
8.188963699999999335e+01
8.160738700000000279e+01
8.839664500000000658e+01
8.090898300000000631e+01
8.339738300000000493e+01
8.298513499999999965e+01
9.356248899999999935e+01
8.619430800000000659e+01
7.133631300000000408e+01
8.420851000000000397e+01
8.497037000000000262e+01
8.116617399999999805e+01
7.680137100000000316e+01
7.691641300000000570e+01
9.081350100000000225e+01
7.969751999999999725e+01
7.773825999999999681e+01
8.724797599999999420e+01
8.068797299999999950e+01
7.567113399999999501e+01
7.881449399999999628e+01
7.155792200000000491e+01
7.913584400000000585e+01
7.706886500000000240e+01
7.558847600000000000e+01
7.772727299999999673e+01
6.979887800000000198e+01
8.015138799999999719e+01
7.932442700000000002e+01
8.818727499999999964e+01
8.193326700000000073e+01
8.219096899999999550e+01
8.570232199999999523e+01
8.196932900000000188e+01
8.389329200000000242e+01
9.406310399999999561e+01
8.436010000000000275e+01
8.915955900000000156e+01
8.464707300000000600e+01
8.469031699999999319e+01
8.188766999999999996e+01
7.859343499999999949e+01
8.578328199999999981e+01
8.098650200000000154e+01
8.356817200000000412e+01
7.591040900000000136e+01
9.459088599999999758e+01
7.568376000000000658e+01
7.650261999999999318e+01
8.524988000000000454e+01
8.959373499999999524e+01
7.447433499999999640e+01
8.139638899999999921e+01
8.346018100000000572e+01
8.865501500000000590e+01
8.058579299999999535e+01
8.884202600000000416e+01
8.660434200000000260e+01
8.179374300000000630e+01
8.352633699999999806e+01
8.078874999999999318e+01
7.360607400000000666e+01
9.335554500000000644e+01
7.844883000000000095e+01
7.806071699999999680e+01
8.087023999999999546e+01
9.425767100000000198e+01
7.196679699999999968e+01
7.539042499999999336e+01
8.159173300000000495e+01
7.785884199999999566e+01
8.612774000000000285e+01
8.774351400000000467e+01
7.956812999999999647e+01
9.738766300000000342e+01
7.979520899999999983e+01
7.232184999999999775e+01
8.849836299999999767e+01
8.285696799999999484e+01
7.655122299999999314e+01
8.499785500000000127e+01
8.237887299999999868e+01
9.047649400000000242e+01
8.215337300000000198e+01
8.474342799999999443e+01
7.602889500000000567e+01
8.358866899999999589e+01
8.516863999999999635e+01
7.463595300000000066e+01
6.686229000000000156e+01
8.391271299999999655e+01
8.489557999999999538e+01
9.052957899999999825e+01
8.571142600000000300e+01
7.689979999999999905e+01
8.442706499999999892e+01
7.948559099999999944e+01
7.375107599999999763e+01
7.663992399999999350e+01
7.964147800000000643e+01
8.490129500000000462e+01
9.398923499999999365e+01
7.546360599999999863e+01
9.019908599999999410e+01
7.281414300000000139e+01
8.078417000000000314e+01
8.271197600000000705e+01
9.059440899999999885e+01
8.095571200000000545e+01
8.376080000000000325e+01
8.757745500000000050e+01
6.544629299999999716e+01
9.142268699999999626e+01
7.144661899999999832e+01
8.562234599999999318e+01
7.817549300000000301e+01
7.575753600000000176e+01
7.702478899999999840e+01
7.571561499999999967e+01
7.272842300000000648e+01
7.934786599999999623e+01
8.704184800000000166e+01
7.929513300000000697e+01
8.851256399999999758e+01
8.451190599999999620e+01
8.397221199999999897e+01
7.645253999999999905e+01
7.476261100000000681e+01
8.040547700000000475e+01
9.370949099999999987e+01
7.050840999999999781e+01
8.312142500000000211e+01
8.027765899999999988e+01
7.504212099999999452e+01
8.090925900000000581e+01
7.909165000000000134e+01
8.242916200000000515e+01
7.686453699999999856e+01
8.380583500000000186e+01
8.397018699999999569e+01
8.253799899999999923e+01
7.310334199999999782e+01
7.722127899999999556e+01
7.809777900000000272e+01
8.267532599999999832e+01
7.575722500000000537e+01
9.120626900000000603e+01
9.119613599999999565e+01
8.221308299999999747e+01
8.589351700000000278e+01
7.524808099999999911e+01
7.981653799999999421e+01
8.415793200000000240e+01
9.065118800000000476e+01
8.646607000000000198e+01
6.955149400000000526e+01
9.313457900000000222e+01
8.245225000000000648e+01
8.070036100000000090e+01
8.520806299999999567e+01
8.622947600000000534e+01
8.339053199999999322e+01
8.395226399999999956e+01
8.731288499999999431e+01
7.789808399999999722e+01
7.466747300000000109e+01
8.776973099999999306e+01
9.463287300000000357e+01
8.597396299999999769e+01
8.358972500000000139e+01
8.628164300000000253e+01
7.734632899999999722e+01
8.447989599999999655e+01
8.724745099999999809e+01
8.430813799999999958e+01
8.249880299999999522e+01
7.903340000000000032e+01
8.255491999999999564e+01
7.366043100000000265e+01
8.555639499999999487e+01
8.119458099999999945e+01
7.896465000000000600e+01
8.074742399999999520e+01
9.608742399999999861e+01
7.851506799999999942e+01
8.295288999999999646e+01
7.403004199999999457e+01
8.241137200000000007e+01
8.399728000000000350e+01
7.870109700000000430e+01
8.397488300000000550e+01
8.006971900000000630e+01
8.492786499999999705e+01
7.844298000000000570e+01
7.280541300000000149e+01
8.229166999999999632e+01
7.478136200000000144e+01
8.321423099999999806e+01
8.585648600000000386e+01
6.886642200000000003e+01
7.589694400000000485e+01
7.397756400000000099e+01
7.692669200000000274e+01
8.375566299999999842e+01
7.649344499999999414e+01
9.680879099999999937e+01
7.488959900000000403e+01
9.069498900000000674e+01
9.140463400000000149e+01
7.216028900000000590e+01
9.245760400000000345e+01
8.069291900000000339e+01
7.488833900000000199e+01
8.434106500000000040e+01
8.448145800000000349e+01
8.045156299999999305e+01
8.430683700000000158e+01
8.193653199999999970e+01
8.533791700000000446e+01
6.737157000000000551e+01
7.569090300000000582e+01
7.750352700000000539e+01
8.991557299999999486e+01
9.026820499999999470e+01
7.375797900000000595e+01
8.069684800000000280e+01
7.339740399999999454e+01
9.279389000000000465e+01
8.219223300000000165e+01
7.594692000000000576e+01
8.463181600000000060e+01
7.333391000000000304e+01
7.759239800000000287e+01
8.395365400000000022e+01
8.042335199999999418e+01
7.520331400000000599e+01
9.599226199999999665e+01
8.188299700000000314e+01
8.331243899999999769e+01
8.154493999999999687e+01
8.274208000000000141e+01
7.863269499999999823e+01
8.832109199999999305e+01
7.413793300000000386e+01
7.461619500000000471e+01
7.996322399999999675e+01
8.438656699999999944e+01
8.325552299999999661e+01
7.403272800000000586e+01
8.029287800000000175e+01
8.945210199999999645e+01
8.303648200000000656e+01
7.520502000000000464e+01
8.153798999999999353e+01
7.581606800000000135e+01
8.811597700000000088e+01
8.024671499999999469e+01
8.344646000000000186e+01
8.164476000000000511e+01
7.701041200000000231e+01
8.607766999999999769e+01
6.885637800000000652e+01
8.194710700000000259e+01
8.394113900000000683e+01
8.480015899999999363e+01
7.202375700000000336e+01
9.608690400000000409e+01
7.711119800000000168e+01
8.566537900000000150e+01
7.969885200000000225e+01
9.187215700000000140e+01
6.819025600000000509e+01
7.418350499999999670e+01
7.395665599999999529e+01
7.802822500000000616e+01
8.515474600000000294e+01
6.733108400000000415e+01
8.856698599999999999e+01
8.699313999999999680e+01
8.198557599999999468e+01
9.202309999999999945e+01
9.306658199999999681e+01
8.544922599999999591e+01
7.740297099999999375e+01
8.834632000000000573e+01
8.743429000000000428e+01
8.086474499999999921e+01
8.166966999999999643e+01
8.907182799999999645e+01
8.631599199999999428e+01
6.958540399999999693e+01
7.781712799999999675e+01
7.144318400000000224e+01
7.923653400000000602e+01
8.234156600000000026e+01
7.659959000000000628e+01
7.681652900000000272e+01
7.550405299999999897e+01
7.814118299999999806e+01
7.064319799999999816e+01
7.753777800000000298e+01
8.347303599999999335e+01
8.946679799999999716e+01
8.808799700000000144e+01
8.026800199999999563e+01
7.871005700000000616e+01
8.405747499999999661e+01
7.745285599999999704e+01
7.446903399999999351e+01
8.305668599999999913e+01
7.061836499999999717e+01
7.620887100000000203e+01
8.465489700000000539e+01
7.586694699999999614e+01
8.761057700000000636e+01
7.469170400000000143e+01
7.503601399999999444e+01
8.193952199999999664e+01
7.304961900000000696e+01
7.677561400000000447e+01
8.462997400000000425e+01
8.920326400000000433e+01
8.216720399999999813e+01
7.621527700000000038e+01
6.344489399999999790e+01
7.258984999999999843e+01
6.651480999999999710e+01
8.655169700000000432e+01
8.248974699999999416e+01
7.883318900000000440e+01
7.911071699999999396e+01
7.544336199999999337e+01
7.879666500000000440e+01
8.027138100000000520e+01
8.234705700000000661e+01
7.489499200000000201e+01
7.560242100000000676e+01
7.182383900000000665e+01
7.326906900000000178e+01
9.135797700000000532e+01
7.524934000000000367e+01
7.625577800000000650e+01
6.810328199999999299e+01
7.551412999999999442e+01
7.737729000000000212e+01
8.683314699999999675e+01
7.033282400000000223e+01
7.361417000000000144e+01
7.730979399999999657e+01
8.492794600000000571e+01
8.422135299999999347e+01
8.761523499999999842e+01
9.244752300000000389e+01
8.392822599999999511e+01
8.734499800000000391e+01
8.200830899999999701e+01
7.548125199999999779e+01
8.586736500000000660e+01
7.148330599999999890e+01
9.451997799999999472e+01
7.565907099999999730e+01
8.979410599999999931e+01
7.079011199999999349e+01
7.965939500000000351e+01
7.575112699999999677e+01
8.572269799999999407e+01
8.126185599999999454e+01
8.367074100000000669e+01
8.434286899999999321e+01
8.744709500000000446e+01
8.058679300000000012e+01
7.562813300000000538e+01
8.057851800000000253e+01
7.869896199999999453e+01
7.747464600000000701e+01
8.587396300000000338e+01
8.500493899999999314e+01
7.202938299999999572e+01
8.075700299999999743e+01
8.298688400000000343e+01
8.595738799999999458e+01
8.522398099999999488e+01
8.774835600000000113e+01
8.504667499999999336e+01
6.958406899999999951e+01
7.316443999999999903e+01
8.278352800000000400e+01
7.016471900000000517e+01
8.333412699999999518e+01
7.961327599999999904e+01
8.374007400000000700e+01
9.558050099999999816e+01
9.045563900000000501e+01
7.889894599999999514e+01
9.750324500000000683e+01
7.461127700000000118e+01
7.530848500000000456e+01
6.927557500000000346e+01
9.391896300000000508e+01
8.892775799999999720e+01
8.222666700000000617e+01
8.107527299999999570e+01
7.897969999999999402e+01
7.491644300000000101e+01
7.583197599999999738e+01
7.654044899999999529e+01
9.081606600000000640e+01
7.988066200000000094e+01
7.983928099999999972e+01
8.285529699999999309e+01
7.658080300000000307e+01
6.720253300000000252e+01
8.583821799999999769e+01
7.441715899999999806e+01
9.546902400000000455e+01
8.555030499999999449e+01
7.642857600000000673e+01
8.597581499999999721e+01
8.762183899999999426e+01
8.868626600000000337e+01
8.804521699999999385e+01
8.523993199999999604e+01
8.458501599999999598e+01
7.496571299999999383e+01
7.316323300000000529e+01
7.018079600000000084e+01
8.774704699999999491e+01
8.642196199999999351e+01
6.957733000000000345e+01
7.586790200000000084e+01
8.423918799999999862e+01
8.282275500000000079e+01
8.122183900000000278e+01
9.372147099999999398e+01
7.994670800000000099e+01
7.907730499999999552e+01
7.634120500000000220e+01
8.631233899999999437e+01
8.076514600000000144e+01
7.443060900000000402e+01
7.394874000000000080e+01
6.910670799999999758e+01
7.731407500000000255e+01
8.059284399999999948e+01
7.651475899999999797e+01
8.702845700000000306e+01
8.578069800000000100e+01
6.951039500000000260e+01
7.734111099999999794e+01
8.816217299999999568e+01
6.726720100000000002e+01
8.686050099999999929e+01
7.902509700000000237e+01
7.512659800000000132e+01
9.879859199999999930e+01
8.264622300000000621e+01
7.399531299999999590e+01
8.354985200000000134e+01
8.917682899999999790e+01
8.211005500000000268e+01
7.802892199999999434e+01
8.168555399999999622e+01
7.454943099999999845e+01
8.496582800000000191e+01
9.008204600000000539e+01
8.152704099999999698e+01
7.407290999999999315e+01
8.637613000000000341e+01
8.987018999999999380e+01
8.199384999999999479e+01
8.658414100000000246e+01
8.217102900000000432e+01
9.666950900000000502e+01
7.547930200000000411e+01
8.174820800000000531e+01
7.158740199999999732e+01
6.930816000000000088e+01
8.152659400000000289e+01
8.858020600000000400e+01
7.861319699999999955e+01
8.189867999999999881e+01
8.270871499999999799e+01
7.143455400000000566e+01
8.298738500000000329e+01
8.756620999999999810e+01
8.484013600000000110e+01
8.219832300000000203e+01
7.003786399999999901e+01
7.008094900000000393e+01
8.732933599999999785e+01
7.824226199999999665e+01
9.026667999999999381e+01
8.071836000000000411e+01
8.636110899999999901e+01
7.098461799999999755e+01
8.921707100000000423e+01
8.751843399999999917e+01
7.939659100000000080e+01
8.405783099999999308e+01
7.929525300000000243e+01
8.738535699999999906e+01
8.541664500000000260e+01
8.016305900000000406e+01
8.542832799999999338e+01
7.392006100000000401e+01
9.128793799999999692e+01
6.991105199999999797e+01
7.183713099999999940e+01
7.667322400000000471e+01
7.488734599999999375e+01
7.314010000000000389e+01
7.564229299999999512e+01
8.610776500000000055e+01
7.868868399999999497e+01
8.027005699999999422e+01
7.446070199999999772e+01
7.280239000000000260e+01
7.759568899999999303e+01
8.230359300000000644e+01
7.334407500000000368e+01
7.705755499999999358e+01
8.919743800000000533e+01
7.961715399999999931e+01
8.294363400000000297e+01
9.553520600000000229e+01
8.280454600000000198e+01
7.658002799999999866e+01
9.315084099999999978e+01
8.868601900000000171e+01
8.259184000000000481e+01
8.248131600000000674e+01
8.647976300000000549e+01
8.144917700000000593e+01
7.951266800000000501e+01
8.392571200000000431e+01
6.681270399999999654e+01
7.646584900000000573e+01
6.794356299999999749e+01
7.904549199999999587e+01
8.302910400000000379e+01
8.906034200000000567e+01
8.715619499999999675e+01
8.839376500000000192e+01
6.753613799999999401e+01
7.700898300000000063e+01
9.004187799999999697e+01
8.599973900000000526e+01
8.642380400000000407e+01
8.079143600000000447e+01
7.326248999999999967e+01
8.774110199999999793e+01
8.012894000000000005e+01
8.310437799999999697e+01
8.328482400000000041e+01
7.566180799999999351e+01
8.759855600000000209e+01
8.590715500000000304e+01
8.600925100000000612e+01
8.332103700000000401e+01
8.313683000000000334e+01
7.338807099999999650e+01
8.063086500000000001e+01
7.847322900000000345e+01
8.961231499999999528e+01
6.760787899999999695e+01
7.615587299999999971e+01
7.770423900000000117e+01
9.463326299999999947e+01
7.774461800000000267e+01
9.175607899999999972e+01
8.017450300000000141e+01
6.695104200000000105e+01
9.576395499999999572e+01
7.475270600000000343e+01
7.842748500000000433e+01
8.256984099999999671e+01
7.630373199999999656e+01
8.321626899999999694e+01
8.049240199999999845e+01
6.360742199999999968e+01
9.018552099999999427e+01
8.780612499999999443e+01
8.227396699999999896e+01
7.302577200000000346e+01
8.097959299999999416e+01
7.936401100000000497e+01
8.587165099999999995e+01
8.193837700000000268e+01
7.338785199999999520e+01
8.242314199999999857e+01
7.723938099999999451e+01
8.568474000000000501e+01
9.368264399999999625e+01
7.566228200000000470e+01
8.403512200000000121e+01
7.432216499999999826e+01
8.090994600000000503e+01
8.311469300000000260e+01
8.237755400000000350e+01
8.888178899999999771e+01
7.939248800000000017e+01
8.652517400000000691e+01
8.446834300000000439e+01
8.091106800000000021e+01
8.102744300000000521e+01
7.646992899999999338e+01
7.948664499999999578e+01
7.248754200000000480e+01
7.420754100000000619e+01
9.641994099999999435e+01
7.538510399999999834e+01
7.695828400000000613e+01
7.321737299999999493e+01
7.349987600000000043e+01
7.761506099999999719e+01
7.909414999999999907e+01
7.777746500000000651e+01
8.673625699999999483e+01
8.382341999999999871e+01
8.346750500000000272e+01
8.057250799999999913e+01
9.075369399999999587e+01
7.381440899999999772e+01
8.269859900000000152e+01
7.880502900000000466e+01
7.738578599999999597e+01
8.197062999999999988e+01
7.844746100000000411e+01
7.938972400000000107e+01
8.151713200000000370e+01
8.988171300000000485e+01
7.133216899999999328e+01
7.940137799999999402e+01
8.951943599999999890e+01
8.337182500000000118e+01
8.818886200000000031e+01
8.036933100000000252e+01
8.070000000000000284e+01
8.574016699999999958e+01
7.584628200000000220e+01
7.862022699999999986e+01
8.730362399999999923e+01
7.688330700000000206e+01
6.946455400000000679e+01
8.189866000000000668e+01
8.125962900000000388e+01
7.557115600000000200e+01
7.957898699999999792e+01
7.493909299999999973e+01
7.859373600000000692e+01
7.617619000000000540e+01
7.907776699999999437e+01
8.959534299999999973e+01
7.753216899999999612e+01
6.864707300000000600e+01
7.585809899999999573e+01
7.434979099999999619e+01
7.890126499999999510e+01
8.652705400000000679e+01
7.888013100000000577e+01
1.051517699999999991e+02
8.143681700000000490e+01
8.508825299999999459e+01
1.033514299999999935e+02
6.707751600000000280e+01
7.291535600000000272e+01
8.951324999999999932e+01
9.032531400000000588e+01
8.073679500000000075e+01
7.519603399999999738e+01
8.992362199999999461e+01
9.863060299999999359e+01
7.050684599999999591e+01
8.384636000000000422e+01
8.717014000000000351e+01
8.089146900000000073e+01
8.392578699999999969e+01
7.995656700000000683e+01
9.027672099999999489e+01
6.593615099999999529e+01
8.183965100000000348e+01
8.786542300000000694e+01
7.387394199999999955e+01
7.846917100000000289e+01
7.831452799999999570e+01
7.973168599999999628e+01
8.797021900000000016e+01
8.547623299999999347e+01
8.224797300000000178e+01
8.021819299999999942e+01
7.574767799999999340e+01
8.713194500000000176e+01
7.916201499999999669e+01
8.210393700000000194e+01
8.317667600000000050e+01
9.212428699999999537e+01
8.998736499999999694e+01
7.252401199999999903e+01
7.739815799999999513e+01
6.917969300000000032e+01
8.680672300000000519e+01
9.020941600000000449e+01
8.326676500000000658e+01
8.394296799999999337e+01
9.031412199999999757e+01
8.288625899999999547e+01
7.311428899999999942e+01
8.312551899999999705e+01
7.753318199999999649e+01
8.381685299999999472e+01
7.378070700000000670e+01
7.164185100000000261e+01
7.697566199999999981e+01
7.075065299999999979e+01
9.412992099999999596e+01
7.677168500000000506e+01
7.500419100000000583e+01
8.796314499999999725e+01
8.504822900000000629e+01
7.684916099999999517e+01
8.997485600000000261e+01
7.859859699999999805e+01
8.901422300000000121e+01
7.621829700000000685e+01
8.710172300000000689e+01
9.894158400000000597e+01
8.171956199999999626e+01
6.714502099999999984e+01
9.064748600000000067e+01
9.800082399999999438e+01
7.446282700000000432e+01
7.996372800000000325e+01
8.180349499999999807e+01
7.394358400000000131e+01
9.281735999999999365e+01
7.556890500000000088e+01
8.043829599999999402e+01
8.073742799999999420e+01
7.725939400000000035e+01
7.102325600000000350e+01
8.914360100000000386e+01
7.382441300000000695e+01
8.150624399999999525e+01
8.082308600000000354e+01
6.722861000000000331e+01
7.510894500000000562e+01
7.040117300000000000e+01
7.727043299999999704e+01
7.797983399999999676e+01
8.400884299999999882e+01
7.137716000000000349e+01
7.745996599999999432e+01
7.218164099999999905e+01
6.681715199999999300e+01
8.952054099999999437e+01
6.969641199999999515e+01
8.297509200000000362e+01
8.569408900000000529e+01
7.720095100000000343e+01
7.508823900000000151e+01
7.996937499999999943e+01
7.190255600000000413e+01
8.226610499999999604e+01
7.142160099999999545e+01
7.687237199999999859e+01
8.623251700000000142e+01
8.133219800000000532e+01
8.247534299999999519e+01
8.170483699999999772e+01
7.367914299999999628e+01
7.896214299999999753e+01
8.994244199999999978e+01
7.800461799999999357e+01
7.712438299999999458e+01
7.562160500000000241e+01
7.201869899999999802e+01
7.293558600000000069e+01
7.734521399999999858e+01
7.894117099999999709e+01
8.802748900000000276e+01
8.479093500000000461e+01
7.746082300000000487e+01
7.488693600000000572e+01
8.164539200000000108e+01
9.527358900000000119e+01
7.908400399999999308e+01
7.696128600000000120e+01
7.357299799999999834e+01
7.958265600000000006e+01
8.190896600000000660e+01
7.551423099999999522e+01
8.889198799999999778e+01
7.662536099999999806e+01
7.752992199999999912e+01
8.668980799999999931e+01
8.662499400000000094e+01
7.650523599999999647e+01
8.325257999999999470e+01
8.369596099999999694e+01
9.783717000000000041e+01
8.451997900000000641e+01
7.670176800000000128e+01
8.088706100000000276e+01
7.312275699999999290e+01
8.892290800000000672e+01
9.365584800000000598e+01
7.220898099999999431e+01
8.391002400000000705e+01
8.374053100000000427e+01
9.686073899999999526e+01
8.756715499999999963e+01
7.669397399999999720e+01
6.989475899999999342e+01
8.594522700000000270e+01
7.804688400000000570e+01
8.679195199999999488e+01
7.543870300000000384e+01
7.347508500000000708e+01
8.271858400000000699e+01
8.351591000000000520e+01
8.033423500000000672e+01
7.769370100000000434e+01
8.468171900000000107e+01
7.717167000000000598e+01
9.010530900000000543e+01
7.664745299999999872e+01
8.832704300000000330e+01
8.588367200000000423e+01
9.289420599999999695e+01
8.390267699999999707e+01
7.775557600000000491e+01
6.680976800000000537e+01
7.988412700000000655e+01
8.890615499999999827e+01
7.334317900000000634e+01
7.819350400000000434e+01
8.840003900000000669e+01
7.536997399999999914e+01
8.607237499999999386e+01
8.705603499999999428e+01
8.767626300000000583e+01
9.131370900000000290e+01
8.121343299999999488e+01
8.966260699999999417e+01
7.912691499999999678e+01
8.414496900000000323e+01
8.923315900000000056e+01
8.632318200000000274e+01
8.151349100000000192e+01
7.679659700000000555e+01
7.661055000000000348e+01
8.556553499999999701e+01
7.952857400000000609e+01
7.888321700000000192e+01
8.224318700000000604e+01
8.629179100000000346e+01
7.853231300000000203e+01
7.406021499999999946e+01
8.421296700000000612e+01
7.878984599999999716e+01
7.684954199999999958e+01
6.893441900000000544e+01
8.114240800000000320e+01
8.335504299999999489e+01
7.802289899999999534e+01
8.295914500000000658e+01
7.682411399999999446e+01
8.893308100000000138e+01
8.039486899999999991e+01
7.532744399999999985e+01
7.522526700000000233e+01
8.046454599999999857e+01
7.641487200000000257e+01
8.038936499999999796e+01
7.794211500000000115e+01
7.531101300000000265e+01
8.177295599999999354e+01
7.053149399999999503e+01
7.112693500000000313e+01
8.861516899999999453e+01
8.127912600000000509e+01
8.091299100000000522e+01
7.191868999999999801e+01
6.960081399999999974e+01
7.439290599999999642e+01
8.753048499999999876e+01
7.368520700000000545e+01
8.807017999999999347e+01
7.675109399999999482e+01
8.624775499999999795e+01
8.232949000000000694e+01
7.853676799999999503e+01
8.067366099999999562e+01
9.471534300000000428e+01
8.203667500000000246e+01
7.735477799999999604e+01
7.122940300000000491e+01
8.689513300000000129e+01
7.550570100000000195e+01
7.114985099999999818e+01
8.207683699999999760e+01
7.360410500000000411e+01
8.720437499999999886e+01
7.285583099999999490e+01
7.573489899999999864e+01
9.881913500000000283e+01
5.946543599999999685e+01
6.714915399999999579e+01
8.032160500000000525e+01
8.241091099999999869e+01
7.808771799999999530e+01
9.122120200000000523e+01
8.431437599999999577e+01
7.974322399999999789e+01
7.024457700000000671e+01
8.877875000000000227e+01
8.028370099999999354e+01
7.576766800000000046e+01
7.028334900000000118e+01
8.310686800000000574e+01
9.740920900000000415e+01
7.349305800000000488e+01
7.652950300000000539e+01
8.327372200000000646e+01
8.313009499999999719e+01
6.829552700000000698e+01
7.856732100000000685e+01
7.679346099999999353e+01
7.895502899999999613e+01
7.934788399999999342e+01
7.854774899999999604e+01
7.333386099999999885e+01
8.329996500000000026e+01
7.742230100000000448e+01
7.600769999999999982e+01
8.048616499999999974e+01
8.045647099999999341e+01
8.321291300000000035e+01
7.707722800000000518e+01
7.986179699999999571e+01
6.919558399999999665e+01
8.406161000000000172e+01
8.718280400000000441e+01
7.576876599999999939e+01
8.840976000000000568e+01
7.650201800000000674e+01
7.388115200000000016e+01
7.740852800000000400e+01
9.243765100000000245e+01
8.677482999999999436e+01
7.169984800000000291e+01
8.263938500000000431e+01
7.353828900000000601e+01
9.398518900000000542e+01
7.143843300000000340e+01
8.021031700000000342e+01
7.795100600000000668e+01
9.667471299999999701e+01
7.669266700000000014e+01
8.405897099999999966e+01
9.473700100000000646e+01
8.120410099999999431e+01
7.843482099999999946e+01
7.766325399999999490e+01
7.559018399999999360e+01
6.861845599999999479e+01
7.372849100000000533e+01
8.308319199999999682e+01
8.041388999999999498e+01
8.378227300000000355e+01
7.905930700000000400e+01
7.956198100000000295e+01
7.060536500000000615e+01
6.989852000000000487e+01
8.200005400000000577e+01
8.727553600000000245e+01
7.431217900000000043e+01
8.444713099999999883e+01
7.556926300000000651e+01
8.887105900000000247e+01
8.398656699999999375e+01
9.468717200000000389e+01
7.709022199999999714e+01
8.800498199999999827e+01
7.340544900000000439e+01
6.794318800000000635e+01
7.991496300000000019e+01
8.049780499999999961e+01
7.342530700000000365e+01
7.909622099999999989e+01
7.040169099999999958e+01
7.382132799999999406e+01
7.483029100000000255e+01
6.975981500000000324e+01
9.294690199999999436e+01
8.883829299999999307e+01
8.948452399999999329e+01
7.867711799999999300e+01
8.419351600000000246e+01
7.490952599999999961e+01
6.553938200000000336e+01
8.010218399999999406e+01
7.612167100000000630e+01
8.565241100000000074e+01
7.476778099999999938e+01
9.008144000000000062e+01
8.555216599999999971e+01
8.370302700000000584e+01
7.881192000000000064e+01
8.174449599999999805e+01
8.825312200000000473e+01
7.264693499999999915e+01
8.026155300000000636e+01
7.673616499999999974e+01
7.030900900000000320e+01
7.745806899999999473e+01
7.266400000000000148e+01
8.297676900000000444e+01
7.805167600000000050e+01
7.040401699999999607e+01
7.164283799999999758e+01
1.000521999999999991e+02
8.234291299999999580e+01
9.015315499999999815e+01
8.481923700000000110e+01
7.235122400000000198e+01
7.632340200000000152e+01
8.484910899999999856e+01
8.689852299999999730e+01
8.221701500000000351e+01
8.553206699999999785e+01
9.638679999999999382e+01
8.190862699999999563e+01
8.334760199999999486e+01
7.630359300000000644e+01
7.654931999999999448e+01
8.600717299999999454e+01
7.616371399999999880e+01
8.908160399999999868e+01
7.577425999999999817e+01
8.618471499999999708e+01
8.508841300000000274e+01
9.587647900000000334e+01
8.993516300000000285e+01
8.787782799999999384e+01
8.742224000000000217e+01
8.390167499999999734e+01
9.107343600000000094e+01
9.365478699999999890e+01
8.748376000000000374e+01
8.450275499999999340e+01
9.025208200000000147e+01
7.783912599999999316e+01
8.413097399999999482e+01
8.592655600000000504e+01
8.421445199999999431e+01
9.689622599999999863e+01
8.410326799999999992e+01
8.704191600000000051e+01
8.310566900000000601e+01
8.691820800000000702e+01
7.903720400000000268e+01
7.867876099999999440e+01
6.681190700000000504e+01
7.745959399999999562e+01
8.112108299999999872e+01
8.691623199999999372e+01
6.994011799999999823e+01
8.304829900000000009e+01
8.246711500000000683e+01
9.279884099999999592e+01
7.847446600000000672e+01
9.210592300000000421e+01
8.540482299999999327e+01
8.691855200000000536e+01
6.590470700000000193e+01
9.282540699999999845e+01
8.877430599999999572e+01
8.154639000000000237e+01
8.093926000000000442e+01
8.723994600000000332e+01
6.403848299999999938e+01
8.436126699999999801e+01
7.242968299999999715e+01
7.914127700000000232e+01
8.334546100000000024e+01
8.030145799999999667e+01
7.111537800000000686e+01
9.181867099999999482e+01
8.088410299999999609e+01
8.317481600000000697e+01
8.568466600000000710e+01
7.556653400000000431e+01
7.633625200000000177e+01
7.649103200000000413e+01
7.388487200000000144e+01
8.580992500000000689e+01
8.715043199999999501e+01
8.182346099999999467e+01
9.005584799999999746e+01
8.692099799999999732e+01
7.381618400000000690e+01
8.441755700000000218e+01
7.589561999999999387e+01
8.701792799999999772e+01
8.847853999999999530e+01
8.223356300000000374e+01
6.989539700000000266e+01
8.768896999999999764e+01
7.259811000000000547e+01
8.473726899999999773e+01
7.174178399999999556e+01
8.493541600000000358e+01
6.994640699999999356e+01
8.198155400000000270e+01
7.434076000000000306e+01
8.063870699999999658e+01
8.522683000000000675e+01
8.371450299999999345e+01
8.568632499999999652e+01
7.283192200000000582e+01
8.539040500000000122e+01
7.524145099999999786e+01
8.736940900000000454e+01
7.961802799999999536e+01
9.840829800000000205e+01
7.518482500000000357e+01
7.279924800000000573e+01
7.976529899999999884e+01
8.737617500000000348e+01
7.851697500000000218e+01
6.908733700000000510e+01
8.534397099999999625e+01
7.564097800000000404e+01
8.695984500000000139e+01
7.291256799999999316e+01
8.584799200000000496e+01
7.630812099999999987e+01
7.975544800000000123e+01
6.940542000000000655e+01
8.657588699999999449e+01
9.003914399999999318e+01
8.151853800000000660e+01
7.419060000000000343e+01
8.197918400000000361e+01
8.179966400000000704e+01
8.020158200000000193e+01
9.089298700000000508e+01
7.793677499999999725e+01
8.135654100000000710e+01
8.527802499999999952e+01
8.615035899999999458e+01
7.158299200000000440e+01
7.377259899999999959e+01
8.071234900000000323e+01
8.364796400000000176e+01
8.882697000000000287e+01
8.246514899999999670e+01
9.064183699999999533e+01
8.213601800000000708e+01
8.265704200000000412e+01
9.062802100000000394e+01
9.031435100000000205e+01
8.331901999999999475e+01
7.384420699999999727e+01
9.226972399999999652e+01
7.902572200000000180e+01
7.504746099999999842e+01
7.042593899999999962e+01
8.304656699999999603e+01
8.573871200000000670e+01
7.719065299999999752e+01
9.807452299999999923e+01
1.013953000000000060e+02
7.637998000000000332e+01
7.929697400000000584e+01
8.334968600000000549e+01
7.448535900000000254e+01
7.597572300000000212e+01
8.165914700000000437e+01
8.312542000000000542e+01
9.614978000000000691e+01
8.762813900000000444e+01
7.955201499999999726e+01
9.262327100000000257e+01
8.389810300000000609e+01
8.505965500000000645e+01
6.792183900000000563e+01
7.756542500000000473e+01
8.459711299999999312e+01
9.285174800000000062e+01
8.500295400000000257e+01
8.422561100000000067e+01
7.866487399999999752e+01
7.532819899999999791e+01
8.649378400000000511e+01
6.727532700000000432e+01
6.829300000000000637e+01
8.135483600000000592e+01
7.774979199999999935e+01
7.824346799999999291e+01
7.379629199999999400e+01
8.353910700000000134e+01
8.084425899999999388e+01
9.281740000000000634e+01
8.532062700000000177e+01
8.624543799999999294e+01
8.831199200000000360e+01
9.061887199999999609e+01
7.219880899999999713e+01
7.645521200000000306e+01
7.680831000000000586e+01
9.274600200000000427e+01
8.030146200000000078e+01
7.846908299999999770e+01
7.324693100000000356e+01
8.412535300000000404e+01
8.486068400000000622e+01
8.943669699999999523e+01
7.757148200000000315e+01
7.758505599999999447e+01
7.780620299999999645e+01
8.189856500000000494e+01
8.928525399999999479e+01
7.085157200000000444e+01
7.108602100000000235e+01
8.292929300000000126e+01
8.501403100000000279e+01
7.894615600000000200e+01
7.996408099999999308e+01
7.368474799999999902e+01
7.696820999999999913e+01
8.454529999999999745e+01
9.318712600000000634e+01
7.371363999999999805e+01
8.150564199999999460e+01
8.237831199999999399e+01
8.176498499999999581e+01
9.091707399999999950e+01
8.659750999999999976e+01
8.244919099999999901e+01
7.331188400000000627e+01
7.373343300000000511e+01
7.241215400000000102e+01
7.705745899999999438e+01
8.190320300000000486e+01
8.091930100000000436e+01
7.860930399999999452e+01
8.282560800000000256e+01
8.922785100000000114e+01
8.185545799999999872e+01
6.846492299999999886e+01
7.395220000000000482e+01
8.166515900000000272e+01
7.104624699999999393e+01
7.937301600000000690e+01
8.215302599999999700e+01
7.975398800000000676e+01
7.466120399999999790e+01
9.517015700000000322e+01
7.406652400000000114e+01
7.936500599999999395e+01
8.546393100000000231e+01
7.339671900000000448e+01
6.789058300000000656e+01
7.919978999999999303e+01
8.678979699999999298e+01
9.024696199999999635e+01
8.896639100000000155e+01
8.902290299999999945e+01
7.757202200000000403e+01
8.505950099999999736e+01
7.629016599999999926e+01
8.275392999999999688e+01
8.915731700000000615e+01
8.534213200000000654e+01
8.431360399999999800e+01
7.737950299999999970e+01
8.558918300000000556e+01
8.134461199999999792e+01
7.644753599999999949e+01
7.865525700000000597e+01
6.917088200000000597e+01
8.962240199999999390e+01
8.123440600000000700e+01
9.080229799999999329e+01
9.473717299999999852e+01
7.239790800000000104e+01
7.845014299999999707e+01
8.957485400000000197e+01
8.027832499999999527e+01
7.508318099999999617e+01
7.473604500000000428e+01
8.023518599999999878e+01
7.894362599999999475e+01
8.967290500000000009e+01
7.935363999999999862e+01
6.928165799999999308e+01
7.536195499999999470e+01
7.399312799999999868e+01
9.384739799999999832e+01
7.399605300000000341e+01
7.712428900000000453e+01
8.776216999999999757e+01
8.785711999999999477e+01
8.308669700000000091e+01
7.845413600000000542e+01
6.897233799999999349e+01
8.974535699999999849e+01
8.678167399999999532e+01
7.702174399999999821e+01
8.130794899999999359e+01
7.133581900000000076e+01
9.331539200000000278e+01
7.818327899999999886e+01
7.238875699999999824e+01
7.157008600000000342e+01
8.192320300000000088e+01
7.838146199999999908e+01
7.168292200000000491e+01
7.941631499999999733e+01
7.082031100000000379e+01
9.057201200000000085e+01
8.506704000000000576e+01
7.978170599999999979e+01
7.121491399999999317e+01
9.241548400000000640e+01
7.656782400000000166e+01
7.689043300000000158e+01
8.043008399999999369e+01
8.503634099999999307e+01
8.166465399999999875e+01
8.803582900000000677e+01
8.037408999999999537e+01
7.950293600000000538e+01
7.938959199999999328e+01
7.556184399999999357e+01
7.979011400000000265e+01
6.626105200000000650e+01
8.132015599999999722e+01
7.325031099999999640e+01
7.109177200000000596e+01
8.901438100000000020e+01
9.101818000000000097e+01
7.933415599999999301e+01
7.548612799999999368e+01
8.412074900000000355e+01
7.719245800000000202e+01
9.133408300000000679e+01
8.230149299999999357e+01
8.544705799999999840e+01
7.769497800000000609e+01
8.812203800000000342e+01
7.956955800000000067e+01
7.709617699999999729e+01
7.757136800000000676e+01
8.880741299999999683e+01
7.679832299999999634e+01
8.628085500000000252e+01
7.535964099999999632e+01
8.480195999999999401e+01
8.528389400000000364e+01
7.603496099999999558e+01
8.239561199999999985e+01
7.074858100000000150e+01
8.099071200000000204e+01
8.136337699999999984e+01
6.889266700000000299e+01
8.149721499999999708e+01
8.548555199999999843e+01
8.474845299999999781e+01
7.297892699999999877e+01
8.047007800000000088e+01
7.557243699999999365e+01
7.604646999999999935e+01
8.052491700000000208e+01
6.933095199999999636e+01
7.694682699999999897e+01
8.369731899999999314e+01
8.548530499999999677e+01
7.752216099999999699e+01
8.948340799999999717e+01
7.333724100000000590e+01
6.752315099999999859e+01
7.275380800000000647e+01
8.384909600000000296e+01
8.848337999999999681e+01
7.563613599999999337e+01
8.722667199999999355e+01
7.781912199999999302e+01
8.137756000000000256e+01
8.967741200000000390e+01
7.123903900000000533e+01
7.759767800000000193e+01
7.150882500000000164e+01
7.501970799999999429e+01
8.412345700000000193e+01
7.044071599999999478e+01
8.060847499999999854e+01
7.488961600000000374e+01
8.671712899999999991e+01
8.141465700000000538e+01
8.171888300000000527e+01
8.301061699999999632e+01
7.584327500000000555e+01
8.572081000000000017e+01
7.301885900000000618e+01
8.347996299999999792e+01
7.838784200000000624e+01
7.640671000000000390e+01
6.889198399999999367e+01
8.275101600000000701e+01
7.043060199999999327e+01
8.772024000000000399e+01
7.762248700000000667e+01
8.453658199999999567e+01
9.042390000000000327e+01
8.378200599999999554e+01
7.930751800000000173e+01
7.910926800000000014e+01
8.523588499999999613e+01
7.141108900000000403e+01
8.394968500000000233e+01
6.896295200000000136e+01
8.705644200000000410e+01
8.217836599999999692e+01
7.399912199999999984e+01
6.691562000000000410e+01
8.445442199999999389e+01
6.476013899999999524e+01
7.142621499999999912e+01
8.437094199999999944e+01
8.574982400000000382e+01
8.187126700000000312e+01
7.711003399999999885e+01
7.556370400000000132e+01
6.926837500000000603e+01
7.603704399999999453e+01
7.973305499999999313e+01
9.576554799999999545e+01
8.260380200000000173e+01
7.471886499999999387e+01
7.576057900000000700e+01
8.137764300000000617e+01
7.330880899999999656e+01
7.917224199999999712e+01
7.403974499999999637e+01
8.196459099999999864e+01
8.032142100000000084e+01
7.811196999999999946e+01
8.289952099999999291e+01
7.540665500000000065e+01
8.741142399999999668e+01
9.029193399999999770e+01
9.314487699999999393e+01
7.319599900000000048e+01
8.128782499999999800e+01
8.505341199999999446e+01
7.878967299999999341e+01
7.242681500000000483e+01
8.657464600000000132e+01
8.037042300000000239e+01
7.651285000000000025e+01
7.986516600000000210e+01
8.479149599999999509e+01
8.958823200000000497e+01
7.267340099999999836e+01
8.463410700000000020e+01
8.561479599999999834e+01
6.761871800000000121e+01
9.121095400000000097e+01
8.262187600000000032e+01
7.900804200000000321e+01
8.440976000000000568e+01
8.527296900000000335e+01
7.906775500000000534e+01
8.428179500000000246e+01
7.066481100000000026e+01
8.836398499999999956e+01
7.319613699999999312e+01
9.094999799999999368e+01
8.358166699999999594e+01
9.213862100000000055e+01
7.401784800000000075e+01
9.769054500000000019e+01
7.098669300000000248e+01
7.592533899999999392e+01
8.095650299999999788e+01
8.149451399999999524e+01
8.881060999999999694e+01
7.305728200000000072e+01
6.855976200000000631e+01
7.803212000000000614e+01
7.131967299999999454e+01
7.650457299999999350e+01
8.943809799999999655e+01
8.503609199999999646e+01
8.071862500000000296e+01
8.016170999999999935e+01
8.801334599999999853e+01
7.488719799999999793e+01
8.577319400000000371e+01
8.674001199999999301e+01
9.033444400000000485e+01
8.579705500000000029e+01
6.394376799999999861e+01
7.378077999999999292e+01
8.568834300000000326e+01
7.724600100000000680e+01
8.940399700000000394e+01
8.164277699999999527e+01
7.230395099999999786e+01
8.493633400000000222e+01
8.683859900000000209e+01
7.100540499999999611e+01
7.907605599999999413e+01
7.504989100000000235e+01
7.670465099999999836e+01
8.346187700000000120e+01
7.232592300000000307e+01
8.040236000000000161e+01
7.147094500000000039e+01
7.231554300000000524e+01
7.773642100000000710e+01
7.772144000000000119e+01
7.860264100000000553e+01
7.893062899999999615e+01
8.141920000000000357e+01
7.833728299999999933e+01
7.916417199999999355e+01
8.711768100000000459e+01
7.750623299999999460e+01
6.904427400000000148e+01
8.407832600000000411e+01
7.102562199999999848e+01
9.159370800000000656e+01
8.211041299999999410e+01
7.183303999999999689e+01
7.760435200000000577e+01
9.261315700000000106e+01
8.255404500000000212e+01
8.102737500000000637e+01
6.668752100000000382e+01
8.699650099999999497e+01
7.683973400000000709e+01
7.972340900000000374e+01
8.402158599999999922e+01
8.588235099999999989e+01
8.119574400000000480e+01
7.290108800000000144e+01
8.337377899999999897e+01
8.068660599999999761e+01
8.704472199999999305e+01
8.164234799999999836e+01
7.503866899999999873e+01
6.916983100000000206e+01
8.500291300000000660e+01
8.117365900000000067e+01
6.780709699999999884e+01
8.260896700000000692e+01
7.060959499999999878e+01
8.590847800000000234e+01
8.744844600000000412e+01
8.246450199999999597e+01
7.201960300000000359e+01
8.829767699999999309e+01
9.139135299999999518e+01
9.047744899999999291e+01
8.205699900000000468e+01
8.658117599999999925e+01
7.817452199999999607e+01
7.548835599999999602e+01
8.161012800000000311e+01
7.020999000000000478e+01
8.075002700000000289e+01
7.700493099999999913e+01
7.862684000000000140e+01
7.041897099999999909e+01
7.188293199999999672e+01
8.377564900000000137e+01
6.910420700000000238e+01
9.047172299999999723e+01
9.102615199999999618e+01
7.369025899999999751e+01
8.880411399999999844e+01
7.682915400000000261e+01
7.455387100000000089e+01
7.942327600000000132e+01
7.669442600000000709e+01
7.405902500000000543e+01
7.738164500000000601e+01
7.708918599999999799e+01
8.213407300000000077e+01
7.494045900000000415e+01
7.487002200000000585e+01
7.946508699999999692e+01
8.541169999999999618e+01
7.047227399999999875e+01
8.758111700000000610e+01
8.019040200000000596e+01
8.452990200000000698e+01
6.981886299999999324e+01
6.988148900000000197e+01
8.141462400000000343e+01
7.264445600000000525e+01
9.674376700000000540e+01
8.021908700000000181e+01
8.216191499999999337e+01
8.322780099999999948e+01
8.420302499999999668e+01
7.058097999999999672e+01
7.963379799999999875e+01
8.629602900000000432e+01
8.670840300000000411e+01
7.469677500000000236e+01
7.717653799999999364e+01
7.125416099999999631e+01
8.270722999999999558e+01
7.867830700000000377e+01
7.300887099999999919e+01
8.297359699999999805e+01
8.782626000000000488e+01
8.230169999999999675e+01
9.162316500000000019e+01
7.468308399999999381e+01
7.354258199999999590e+01
7.873865299999999934e+01
8.765456700000000012e+01
8.650256400000000667e+01
7.842846600000000024e+01
8.086418700000000115e+01
6.620055899999999838e+01
8.054013999999999385e+01
8.013184200000000601e+01
8.268444100000000674e+01
7.712812599999999463e+01
8.109318399999999372e+01
7.701277399999999318e+01
8.586992399999999748e+01
8.527474100000000590e+01
8.136386299999999494e+01
7.598721899999999607e+01
8.016424299999999903e+01
8.599654099999999346e+01
8.574005699999999308e+01
7.589493400000000634e+01
8.416532599999999320e+01
8.585260200000000452e+01
8.019135400000000402e+01
7.771744800000000453e+01
7.446927700000000527e+01
8.301821099999999376e+01
7.699855800000000272e+01
1.031875299999999953e+02
9.114543700000000115e+01
8.121492299999999886e+01
7.254043000000000063e+01
7.825040300000000570e+01
7.484436599999999373e+01
8.508374799999999993e+01
8.281186900000000151e+01
8.146404099999999460e+01
6.782927599999999302e+01
7.121020699999999692e+01
8.155020100000000127e+01
7.204951599999999701e+01
7.430361899999999764e+01
8.574030199999999979e+01
7.100294800000000350e+01
8.043967299999999909e+01
7.601429600000000164e+01
7.659546199999999772e+01
8.135939700000000130e+01
8.751718999999999937e+01
8.693918600000000652e+01
8.664266399999999635e+01
7.845264299999999480e+01
7.284642999999999802e+01
7.931070699999999363e+01
7.384350499999999329e+01
7.370595400000000552e+01
7.186287299999999334e+01
7.176691399999999987e+01
7.401964499999999703e+01
7.798589300000000435e+01
9.282457200000000341e+01
6.919544999999999391e+01
8.172172399999999470e+01
8.344405999999999324e+01
8.117961599999999578e+01
8.186105499999999324e+01
8.299938299999999458e+01
8.574077300000000434e+01
8.158145100000000127e+01
8.033609400000000278e+01
6.701755099999999743e+01
8.432931800000000067e+01
9.539588700000000188e+01
7.743359499999999684e+01
8.376005399999999668e+01
8.091537499999999739e+01
7.461540599999999301e+01
8.005175199999999336e+01
8.540361699999999701e+01
8.944063699999999528e+01
7.944845399999999813e+01
9.630992299999999773e+01
8.077875500000000386e+01
7.766627800000000548e+01
8.047364299999999560e+01
8.296980999999999540e+01
8.728533600000000092e+01
6.828131199999999978e+01
6.660787600000000452e+01
7.582689299999999832e+01
7.222978000000000520e+01
8.764443400000000395e+01
7.768619400000000041e+01
7.592317400000000305e+01
6.755820199999999431e+01
8.307777299999999343e+01
8.800092899999999929e+01
7.498411199999999610e+01
6.878687299999999993e+01
8.336884899999999732e+01
7.506458399999999642e+01
8.118493999999999744e+01
9.064304099999999664e+01
7.251816900000000032e+01
8.815055700000000627e+01
7.439121299999999337e+01
7.945424199999999360e+01
9.267221700000000340e+01
8.537714300000000378e+01
8.063464199999999948e+01
8.812462999999999624e+01
5.952637800000000112e+01
8.306029499999999643e+01
8.008076199999999290e+01
7.486480799999999647e+01
7.068574700000000632e+01
8.230438499999999635e+01
8.882853299999999308e+01
9.037389799999999696e+01
8.724255899999999997e+01
8.229130800000000079e+01
7.684219099999999969e+01
9.873154100000000710e+01
7.186279799999999796e+01
7.591914099999999621e+01
9.076774399999999332e+01
8.314099699999999871e+01
7.033333500000000527e+01
7.902623300000000484e+01
7.284842199999999934e+01
8.487337700000000495e+01
7.718935399999999447e+01
7.907513600000000054e+01
8.336392100000000482e+01
8.487232899999999347e+01
7.902580000000000382e+01
8.469726699999999653e+01
8.331766500000000519e+01
7.853531499999999710e+01
9.824596300000000326e+01
7.023502200000000073e+01
7.416463699999999903e+01
8.478358699999999715e+01
7.675252000000000407e+01
7.315393100000000004e+01
8.472508600000000456e+01
7.852223800000000153e+01
8.891750700000000052e+01
7.813156899999999894e+01
7.330423399999999390e+01
7.872428399999999726e+01
6.755080800000000352e+01
7.619600099999999543e+01
7.741633600000000115e+01
7.668575300000000539e+01
6.199928400000000295e+01
7.590090999999999610e+01
7.612821999999999889e+01
9.241984399999999766e+01
8.303406400000000076e+01
8.261604499999999973e+01
8.033305599999999913e+01
8.000981000000000165e+01
8.175268499999999960e+01
8.397087999999999397e+01
6.516280500000000586e+01
7.014237400000000378e+01
7.406618600000000185e+01
8.594625200000000120e+01
7.160388000000000375e+01
8.061593200000000081e+01
7.923997300000000621e+01
7.391770599999999547e+01
8.526939199999999630e+01
8.264941199999999810e+01
7.677315600000000018e+01
7.900187099999999418e+01
6.943523000000000422e+01
8.554750199999999438e+01
8.671206899999999962e+01
7.616638500000000533e+01
6.957676399999999717e+01
8.516561299999999335e+01
7.037524500000000671e+01
6.948380500000000382e+01
7.953206500000000290e+01
6.988151499999999317e+01
6.946783600000000547e+01
7.757152800000000070e+01
7.721286600000000533e+01
8.173978999999999928e+01
7.557392799999999511e+01
9.268011400000000322e+01
8.038606000000000051e+01
8.036887500000000273e+01
7.465473299999999313e+01
8.427709799999999518e+01
7.798385700000000043e+01
8.957132300000000669e+01
7.061538299999999424e+01
7.680654400000000237e+01
7.991936099999999499e+01
8.057158200000000647e+01
7.663215099999999325e+01
7.739648099999999431e+01
8.570579200000000242e+01
8.857378400000000340e+01
8.045561499999999455e+01
7.995431999999999562e+01
8.494343000000000643e+01
7.836231300000000033e+01
7.637853800000000604e+01
8.513756399999999758e+01
9.354803499999999872e+01
7.900658599999999865e+01
8.853882699999999772e+01
7.472115200000000357e+01
8.218721700000000396e+01
8.554158800000000440e+01
9.077334100000000205e+01
6.879375199999999779e+01
7.407375399999999388e+01
8.563560499999999820e+01
7.886374700000000360e+01
7.616882400000000075e+01
8.793366600000000233e+01
7.526998000000000388e+01
7.086679999999999779e+01
7.136428700000000447e+01
7.987163400000000024e+01
7.476017899999999372e+01
7.932724600000000237e+01
7.240173500000000217e+01
7.567582500000000323e+01
8.764151400000000081e+01
8.192360700000000406e+01
8.237829800000000091e+01
9.266752800000000434e+01
6.818379199999999685e+01
8.806926199999999483e+01
8.139657099999999446e+01
8.842261000000000593e+01
7.962854199999999594e+01
8.402068099999999617e+01
9.139608300000000440e+01
8.754371100000000183e+01
8.687223099999999931e+01
7.494224099999999567e+01
8.649379600000000323e+01
8.205111399999999833e+01
8.599326899999999796e+01
8.176424400000000503e+01
8.981984099999999671e+01
7.451562599999999748e+01
8.527025799999999833e+01
8.312045700000000181e+01
7.362159499999999923e+01
8.492165799999999365e+01
6.867323700000000031e+01
8.252289799999999786e+01
9.542647200000000396e+01
8.774041499999999871e+01
8.612272000000000105e+01
7.693346699999999316e+01
7.538005599999999617e+01
7.575290400000000091e+01
7.177479999999999905e+01
9.290345899999999801e+01
7.592212800000000072e+01
8.403474500000000091e+01
8.169367699999999388e+01
9.322334600000000648e+01
6.659060599999999397e+01
6.786114899999999750e+01
9.128727299999999900e+01
7.130466300000000501e+01
8.145199599999999407e+01
8.133807000000000187e+01
8.320119400000000098e+01
7.755377599999999916e+01
7.773195699999999420e+01
8.334739799999999832e+01
8.048008099999999843e+01
7.678114499999999509e+01
8.535001900000000319e+01
7.887444100000000446e+01
8.200116199999999367e+01
8.188732400000000666e+01
9.206675300000000561e+01
7.301622600000000318e+01
8.251006200000000490e+01
7.158446700000000362e+01
8.067869199999999807e+01
7.982059700000000646e+01
8.932053999999999405e+01
8.673084699999999714e+01
9.025412799999999436e+01
7.344455899999999815e+01
7.964737800000000334e+01
7.713777899999999477e+01
8.384094600000000241e+01
8.373107199999999750e+01
8.816442200000000184e+01
7.541833699999999396e+01
6.883204600000000539e+01
7.863875799999999572e+01
8.349561599999999828e+01
8.359005200000000002e+01
8.180580199999999991e+01
7.850514400000000137e+01
8.186004599999999698e+01
7.886697399999999902e+01
7.915682900000000188e+01
7.671831099999999992e+01
7.257640200000000164e+01
8.077585200000000043e+01
7.297035200000000543e+01
8.406556299999999737e+01
8.089667199999999525e+01
8.217757899999999438e+01
7.699478600000000483e+01
7.921603199999999845e+01
8.337673499999999649e+01
7.817373499999999353e+01
7.666441399999999362e+01
8.975985799999999415e+01
8.703171600000000296e+01
8.673126100000000349e+01
7.479926299999999628e+01
6.723669200000000501e+01
7.239776999999999418e+01
7.593316199999999583e+01
7.374962299999999971e+01
7.634332799999999963e+01
8.296544199999999591e+01
7.408824400000000310e+01
8.916121499999999855e+01
7.947301299999999458e+01
8.305561299999999392e+01
7.447817899999999725e+01
6.864950899999999478e+01
8.260685399999999845e+01
7.870432200000000478e+01
8.846904499999999416e+01
6.926108499999999424e+01
8.024114000000000146e+01
8.311527999999999849e+01
8.102273599999999476e+01
9.020852200000000209e+01
7.028670400000000029e+01
8.369823399999999936e+01
8.289747099999999591e+01
7.515484200000000214e+01
8.052823399999999765e+01
8.523771299999999940e+01
8.179181599999999719e+01
6.982161000000000683e+01
8.811503899999999589e+01
9.131210900000000663e+01
7.452249500000000637e+01
7.519785299999999495e+01
7.104041100000000597e+01
7.931007999999999925e+01
8.583584700000000112e+01
8.170956400000000031e+01
8.532557099999999650e+01
9.056853800000000376e+01
8.730907500000000709e+01
8.255428399999999556e+01
7.781965200000000493e+01
7.767841400000000363e+01
8.266380300000000148e+01
7.592343700000000695e+01
7.735310400000000186e+01
7.298007099999999525e+01
8.232611199999999485e+01
6.701915099999999370e+01
6.836188799999999333e+01
7.117283999999999367e+01
7.221318899999999985e+01
8.895380099999999857e+01
7.951379900000000589e+01
8.236819500000000005e+01
8.051640700000000095e+01
8.533944099999999366e+01
7.699601499999999987e+01
7.969309800000000621e+01
8.297947399999999618e+01
7.485697399999999391e+01
8.241374999999999318e+01
7.865330299999999397e+01
8.037454099999999357e+01
7.761126000000000147e+01
8.504872600000000205e+01
7.244524400000000242e+01
8.039011000000000706e+01
9.232798499999999819e+01
8.210376300000000072e+01
9.574947099999999978e+01
7.881915700000000413e+01
7.711093499999999779e+01
8.735036700000000565e+01
7.729599799999999732e+01
7.991370899999999722e+01
7.314588799999999935e+01
8.165320800000000645e+01
8.294299499999999625e+01
7.640942599999999629e+01
8.766262000000000398e+01
7.882921600000000240e+01
8.297969899999999654e+01
8.062922299999999609e+01
6.696829499999999769e+01
8.281659299999999746e+01
8.374312199999999962e+01
7.274953899999999862e+01
9.088179200000000435e+01
8.136356999999999573e+01
7.275193199999999649e+01
6.789404600000000300e+01
7.982884599999999864e+01
8.985343600000000208e+01
9.089375400000000127e+01
7.504790099999999597e+01
7.510425600000000657e+01
7.459797899999999515e+01
7.940652900000000614e+01
8.658818599999999321e+01
8.544696799999999826e+01
8.651339000000000112e+01
8.613787700000000314e+01
8.217146700000000692e+01
9.011124599999999418e+01
7.545979900000000384e+01
8.707095499999999788e+01
6.859426999999999452e+01
8.718614599999999371e+01
7.639885400000000004e+01
8.309362900000000707e+01
8.365192299999999648e+01
8.210161600000000703e+01
8.170221399999999790e+01
6.544079800000000091e+01
7.592572400000000243e+01
8.397323199999999588e+01
7.610337400000000230e+01
7.440489599999999371e+01
8.222696399999999528e+01
8.574707800000000191e+01
6.342055599999999771e+01
8.731810900000000686e+01
8.610591999999999757e+01
7.740966799999999637e+01
6.896557199999999455e+01
7.713442200000000071e+01
6.926060300000000325e+01
8.824200399999999433e+01
8.932276500000000397e+01
7.974151899999999671e+01
8.650572400000000073e+01
7.517451800000000617e+01
7.833935499999999763e+01
7.560544500000000312e+01
9.250924999999999443e+01
7.181194600000000605e+01
8.504860399999999743e+01
7.401358500000000618e+01
7.151166200000000117e+01
7.244882800000000600e+01
8.174578700000000708e+01
8.208083299999999838e+01
8.567385099999999909e+01
7.541048299999999927e+01
8.645752500000000396e+01
8.119938199999999995e+01
7.693927200000000255e+01
8.514803399999999556e+01
6.967982399999999643e+01
8.395722299999999905e+01
7.564031900000000519e+01
8.102325500000000602e+01
6.979754900000000362e+01
9.663325899999999535e+01
7.815339299999999412e+01
9.338483200000000295e+01
7.937092300000000478e+01
8.240415400000000545e+01
7.886774699999999427e+01
7.830971800000000371e+01
8.484108899999999664e+01
6.733798299999999415e+01
7.767759999999999820e+01
7.461620299999999872e+01
7.331374399999999980e+01
8.471975000000000477e+01
8.514617200000000707e+01
8.765006999999999948e+01
6.809530700000000536e+01
7.527961299999999767e+01
9.786683700000000385e+01
8.379993399999999326e+01
8.045921199999999374e+01
8.337095800000000168e+01
7.098999000000000592e+01
7.438697600000000421e+01
7.697995000000000232e+01
8.629681999999999675e+01
8.474984600000000512e+01
7.431525700000000256e+01
8.593936999999999671e+01
8.949398700000000417e+01
8.123212499999999636e+01
8.686544399999999655e+01
7.279967299999999852e+01
7.959277899999999306e+01
7.782022600000000523e+01
5.989777899999999988e+01
9.107519399999999621e+01
8.598123099999999397e+01
7.646196299999999724e+01
7.330618200000000684e+01
8.315854099999999960e+01
8.237988300000000663e+01
8.280863200000000290e+01
7.997908400000000029e+01
7.854975199999999802e+01
7.600511799999999596e+01
9.042451400000000206e+01
7.735967300000000080e+01
8.307842800000000238e+01
7.313545899999999733e+01
8.117260400000000686e+01
8.839189899999999511e+01
8.251934199999999464e+01
8.366977799999999377e+01
6.848642999999999859e+01
7.434604600000000119e+01
8.206009799999999643e+01
7.203769800000000600e+01
8.460193700000000661e+01
8.593247100000000671e+01
8.337965900000000374e+01
7.748542700000000139e+01
7.770721799999999746e+01
8.769137499999999363e+01
7.632964800000000594e+01
9.286707900000000393e+01
7.590898599999999874e+01
8.141607500000000641e+01
8.441693800000000181e+01
7.667666499999999985e+01
7.721975399999999468e+01
8.719104900000000669e+01
6.791138200000000325e+01
8.868450599999999895e+01
7.102069400000000599e+01
8.082583200000000545e+01
9.548643099999999606e+01
7.737153499999999440e+01
7.934793899999999667e+01
8.378346899999999664e+01
7.440642499999999870e+01
8.257241600000000403e+01
7.620414700000000607e+01
7.625208000000000652e+01
8.449382900000000518e+01
8.790579400000000021e+01
7.949401400000000706e+01
8.414497000000000071e+01
6.522124499999999614e+01
8.043209600000000137e+01
7.161487300000000289e+01
8.090557300000000396e+01
8.002542099999999436e+01
8.554038500000000056e+01
7.669844999999999402e+01
7.878963299999999492e+01
7.413409900000000619e+01
8.377836499999999376e+01
9.524940300000000093e+01
8.111017599999999561e+01
7.584382800000000202e+01
7.282233600000000706e+01
8.693370299999999418e+01
9.534173400000000242e+01
7.630331400000000031e+01
8.361904499999999985e+01
6.906974300000000255e+01
8.593730800000000158e+01
8.066809100000000399e+01
9.466040200000000482e+01
8.748497000000000412e+01
8.580900499999999909e+01
7.845023000000000479e+01
8.206673899999999833e+01
7.769351699999999994e+01
9.671786799999999573e+01
8.301685799999999915e+01
7.753694099999999878e+01
7.790113800000000310e+01
7.895094199999999773e+01
7.945210799999999551e+01
7.204847200000000385e+01
7.239448799999999551e+01
7.464690699999999879e+01
9.038638699999999915e+01
7.938825400000000343e+01
9.763849100000000192e+01
7.735183200000000170e+01
7.969020600000000343e+01
8.202203599999999994e+01
8.729309600000000557e+01
7.499405099999999891e+01
7.959145700000000545e+01
8.089660499999999388e+01
8.955187499999999545e+01
7.848261300000000062e+01
7.680593799999999760e+01
8.129821699999999396e+01
7.772039399999999887e+01
8.112460199999999588e+01
8.086203500000000588e+01
7.833535799999999938e+01
8.652963699999999392e+01
7.825312200000000473e+01
7.407440400000000125e+01
8.077670700000000181e+01
8.272815900000000511e+01
7.722050600000000031e+01
7.759419499999999914e+01
9.172832999999999970e+01
9.212337300000000084e+01
7.740623100000000534e+01
7.552764000000000522e+01
8.291151100000000440e+01
8.415462100000000589e+01
7.078176200000000051e+01
7.344098599999999522e+01
7.929844099999999685e+01
8.302473799999999926e+01
7.817484000000000322e+01
7.406172200000000316e+01
8.383682399999999291e+01
7.633989099999999439e+01
8.928195399999999893e+01
8.064032699999999920e+01
7.465935299999999586e+01
8.025576900000000080e+01
6.853742099999999482e+01
8.938514200000000187e+01
8.706260299999999575e+01
7.653680400000000361e+01
7.195890799999999388e+01
8.959989400000000614e+01
6.900592199999999821e+01
8.201326600000000155e+01
7.991667800000000454e+01
7.340542800000000057e+01
7.144869599999999821e+01
7.259932999999999481e+01
7.789724599999999555e+01
7.705901500000000226e+01
8.355916000000000565e+01
6.768708900000000028e+01
7.136251400000000444e+01
8.800745200000000068e+01
7.720117100000000221e+01
7.458694500000000005e+01
8.358951999999999316e+01
7.881609299999999507e+01
9.077656299999999590e+01
7.580560300000000495e+01
8.238099300000000369e+01
7.320246099999999956e+01
7.976747400000000709e+01
8.284697699999999543e+01
8.022415499999999611e+01
8.234083099999999433e+01
7.898421100000000195e+01
8.548393699999999740e+01
7.874667800000000284e+01
8.662383599999999717e+01
8.379926399999999376e+01
7.390072899999999834e+01
8.063791500000000667e+01
7.594362099999999316e+01
8.607360099999999647e+01
8.561015500000000600e+01
7.643536500000000444e+01
9.007047099999999773e+01
7.731072500000000502e+01
7.784102599999999939e+01
1.007257800000000003e+02
7.072060999999999353e+01
7.596899299999999755e+01
6.808494000000000312e+01
7.978181700000000376e+01
8.226608199999999727e+01
9.264832199999999318e+01
8.769895599999999547e+01
7.760338500000000295e+01
7.575261600000000328e+01
7.265930600000000084e+01
8.178944500000000062e+01
8.588290399999999636e+01
7.648588900000000024e+01
7.040791799999999512e+01
7.690766100000000449e+01
9.144331800000000499e+01
8.091573900000000208e+01
8.054332899999999995e+01
8.485356500000000324e+01
7.920811500000000649e+01
7.904337499999999750e+01
8.910462099999999452e+01
7.813415100000000280e+01
7.802859899999999982e+01
7.799057799999999929e+01
7.441962100000000646e+01
7.731576200000000654e+01
7.320067199999999730e+01
7.886311299999999846e+01
8.023265299999999911e+01
7.756129199999999457e+01
7.235323900000000208e+01
7.041680399999999906e+01
9.168587200000000337e+01
7.896546899999999880e+01
8.011766500000000235e+01
9.106805900000000520e+01
8.516453400000000329e+01
7.931007300000000271e+01
8.969202300000000605e+01
8.762302999999999997e+01
8.195194299999999998e+01
8.522731299999999521e+01
7.459714499999999759e+01
7.254193700000000433e+01
8.779316599999999937e+01
7.753350100000000111e+01
6.663571699999999964e+01
8.480770599999999604e+01
8.556259799999999416e+01
8.641469200000000228e+01
8.162831599999999810e+01
8.217172700000000418e+01
8.326329699999999434e+01
7.509125500000000386e+01
8.230740299999999365e+01
7.537581299999999374e+01
8.036766299999999319e+01
8.540140999999999849e+01
8.422128899999999874e+01
8.666634899999999675e+01
7.943558400000000574e+01
8.309273699999999963e+01
7.318188100000000418e+01
6.758736399999999378e+01
7.990311900000000378e+01
8.336309500000000128e+01
9.527043799999999862e+01
7.991098200000000418e+01
8.407750599999999963e+01
8.045928200000000174e+01
7.773108999999999469e+01
8.724555100000000607e+01
7.860663099999999304e+01
7.686394099999999696e+01
7.464707599999999843e+01
7.351706699999999728e+01
9.045271900000000187e+01
8.852718400000000543e+01
8.527946900000000596e+01
8.706026900000000524e+01
8.216078799999999660e+01
7.491619199999999523e+01
8.495283600000000490e+01
8.230306199999999706e+01
7.844005599999999845e+01
8.685522799999999677e+01
7.802380899999999997e+01
7.669909499999999980e+01
7.573548399999999958e+01
8.676292300000000068e+01
7.714692200000000355e+01
8.139039300000000310e+01
8.695898099999999431e+01
7.949270799999999326e+01
8.315068700000000490e+01
7.565367600000000436e+01
8.434203499999999565e+01
7.624802400000000091e+01
8.583770800000000634e+01
8.825905099999999948e+01
8.343981499999999585e+01
8.484319000000000699e+01
8.346649200000000235e+01
8.137698199999999815e+01
8.342896399999999346e+01
8.952005800000000590e+01
7.440801000000000442e+01
8.408840499999999452e+01
8.126100999999999885e+01
8.667635599999999840e+01
7.404552700000000698e+01
9.452787399999999707e+01
8.625974800000000187e+01
8.397233599999999853e+01
8.625908200000000647e+01
9.374791500000000610e+01
7.843709200000000692e+01
8.287776599999999405e+01
7.424297400000000380e+01
7.134795900000000302e+01
7.305925399999999570e+01
7.521913100000000441e+01
7.902523399999999754e+01
8.374132899999999324e+01
7.406247500000000628e+01
8.236610100000000045e+01
8.645763599999999371e+01
8.222564800000000673e+01
8.755818899999999871e+01
8.542211899999999503e+01
8.937906900000000121e+01
7.384454800000000319e+01
7.311317499999999825e+01
8.286042100000000232e+01
8.921596999999999866e+01
8.438238300000000436e+01
7.317125000000000057e+01
8.118782500000000368e+01
8.574095499999999959e+01
8.039854599999999607e+01
7.229343299999999317e+01
8.971214399999999500e+01
8.321240000000000236e+01
7.578432100000000560e+01
8.925287099999999896e+01
7.262571599999999705e+01
7.922536900000000060e+01
7.253103299999999365e+01
7.642702300000000548e+01
7.405398300000000233e+01
6.759483799999999576e+01
7.695533600000000263e+01
9.192461600000000033e+01
7.908942600000000311e+01
9.559454300000000160e+01
8.020421299999999576e+01
9.090693299999999510e+01
8.264816299999999671e+01
8.767595599999999934e+01
7.618806600000000628e+01
9.344645699999999522e+01
9.002974799999999789e+01
8.654957400000000689e+01
7.159651200000000415e+01
8.947688399999999831e+01
8.615596299999999985e+01
7.307458800000000565e+01
7.848991700000000549e+01
6.511815599999999904e+01
9.012081399999999576e+01
8.475578000000000145e+01
7.180801999999999907e+01
8.478680799999999351e+01
9.005067900000000236e+01
9.412625300000000550e+01
8.180455100000000357e+01
8.064442900000000236e+01
8.476887200000000178e+01
8.752960099999999954e+01
8.852774100000000601e+01
8.970704899999999782e+01
7.978422999999999377e+01
9.833579000000000292e+01
7.838747600000000659e+01
7.427648999999999546e+01
8.084472700000000600e+01
6.744476400000000638e+01
7.357532500000000653e+01
7.388684000000000651e+01
8.229542700000000366e+01
8.511563999999999908e+01
7.590272899999999368e+01
8.685781900000000633e+01
7.435693799999999953e+01
7.211166599999999960e+01
8.399455700000000036e+01
8.335288099999999645e+01
7.693562900000000582e+01
7.436691999999999325e+01
7.188133600000000456e+01
7.701294099999999787e+01
8.554924800000000573e+01
7.800065100000000484e+01
8.068533700000000408e+01
8.570384500000000116e+01
8.254730600000000607e+01
7.269474400000000003e+01
7.835663399999999967e+01
8.213257699999999772e+01
7.925163499999999317e+01
8.340123699999999474e+01
8.258700000000000330e+01
7.797801599999999667e+01
8.372029499999999302e+01
8.826146799999999359e+01
7.855658099999999422e+01
7.671693199999999990e+01
8.261023900000000708e+01
8.951363000000000625e+01
8.515805199999999786e+01
7.811708299999999383e+01
7.733267800000000136e+01
8.735572700000000168e+01
7.536367500000000064e+01
7.743794200000000671e+01
8.475831100000000617e+01
8.579563400000000684e+01
9.277922999999999831e+01
8.470356099999999344e+01
7.271221900000000460e+01
8.243281100000000094e+01
8.761340900000000431e+01
8.592892000000000507e+01
7.720145899999999983e+01
8.808536300000000097e+01
7.752771599999999808e+01
7.946838599999999531e+01
7.345044400000000451e+01
7.894511799999999369e+01
7.685508199999999590e+01
8.323811299999999846e+01
8.313606199999999546e+01
8.186634399999999800e+01
7.096406500000000506e+01
8.840259799999999757e+01
7.899062399999999684e+01
7.456633499999999515e+01
8.756537799999999550e+01
7.988277700000000436e+01
9.196852599999999711e+01
8.567702800000000707e+01
8.092554800000000625e+01
8.610881700000000194e+01
8.708581399999999917e+01
7.513520300000000418e+01
7.143546999999999514e+01
8.104567400000000532e+01
7.380524699999999427e+01
7.826083900000000426e+01
7.205103599999999631e+01
8.973322000000000287e+01
8.455591599999999630e+01
7.571489699999999345e+01
7.970395899999999756e+01
8.934765400000000568e+01
8.912729199999999707e+01
7.926211600000000601e+01
8.219438300000000197e+01
7.159291799999999739e+01
6.552611199999999769e+01
7.267010500000000661e+01
8.250216899999999498e+01
8.229991900000000271e+01
9.112581900000000701e+01
8.044724399999999775e+01
7.882443499999999403e+01
8.076084799999999575e+01
8.506400999999999613e+01
8.832338900000000592e+01
9.245637700000000336e+01
8.870885099999999568e+01
8.669232700000000591e+01
7.999165600000000609e+01
8.052789199999999425e+01
8.596366999999999337e+01
8.698693400000000508e+01
7.677755799999999908e+01
1.008192499999999967e+02
8.616231399999999496e+01
8.414464999999999861e+01
8.295827300000000548e+01
8.032762200000000519e+01
8.497897899999999538e+01
6.986720300000000350e+01
8.844662900000000150e+01
7.253916300000000206e+01
7.532902400000000398e+01
5.938042000000000087e+01
8.132424500000000478e+01
7.378800499999999829e+01
8.567409999999999570e+01
7.541850399999999865e+01
8.007292900000000202e+01
7.648057199999999511e+01
6.740954800000000091e+01
8.755248100000000022e+01
7.942862999999999829e+01
7.735001200000000665e+01
8.297437899999999900e+01
7.419693999999999789e+01
8.761835100000000409e+01
8.497411599999999510e+01
7.336732999999999549e+01
9.449525400000000275e+01
8.429327899999999829e+01
7.254259600000000319e+01
7.477588000000000079e+01
8.130051799999999673e+01
7.660745300000000668e+01
8.553987700000000416e+01
8.220525600000000566e+01
8.753269500000000392e+01
9.272972300000000700e+01
7.076713599999999360e+01
8.728078700000000367e+01
8.196921899999999539e+01
7.249464199999999892e+01
8.870962600000000009e+01
8.160806300000000135e+01
7.392142200000000685e+01
8.914308400000000177e+01
7.413124600000000441e+01
8.283685499999999990e+01
8.709857599999999422e+01
8.486225500000000466e+01
7.750953400000000215e+01
9.030954499999999996e+01
7.539806900000000667e+01
7.806838600000000383e+01
7.290904100000000199e+01
6.863582800000000361e+01
8.550562600000000657e+01
7.373279599999999334e+01
7.639102099999999496e+01
7.022063500000000147e+01
7.952889700000000062e+01
8.305388299999999902e+01
7.626315300000000263e+01
9.169357599999999309e+01
8.556784000000000390e+01
8.990393799999999658e+01
7.947604499999999916e+01
7.112736900000000162e+01
8.216140000000000043e+01
6.810442100000000210e+01
8.346395400000000109e+01
9.413912100000000294e+01
7.622811599999999999e+01
7.756296000000000390e+01
8.301119099999999662e+01
8.414873099999999795e+01
6.981543700000000285e+01
8.383291599999999733e+01
7.747083100000000400e+01
8.131884200000000362e+01
8.002396199999999737e+01
8.068767400000000123e+01
7.317962099999999737e+01
7.535883699999999408e+01
9.023730500000000632e+01
7.686493799999999510e+01
6.920455099999999504e+01
8.403456500000000062e+01
9.128194799999999987e+01
7.189054400000000555e+01
9.863835699999999918e+01
8.288362499999999500e+01
7.903819599999999923e+01
8.367756799999999373e+01
7.849490500000000281e+01
8.532628300000000365e+01
7.679766999999999655e+01
7.422398099999999488e+01
7.599437399999999343e+01
7.775566100000000347e+01
9.957620000000000005e+01
9.085030199999999923e+01
8.126443299999999681e+01
7.300911700000000337e+01
7.036819199999999341e+01
9.072579899999999498e+01
8.317455800000000465e+01
8.575878699999999810e+01
7.461931099999999617e+01
8.042077899999999602e+01
8.515565800000000252e+01
8.372826200000000085e+01
7.409131100000000458e+01
6.512249400000000321e+01
7.070242600000000266e+01
7.677693100000000470e+01
7.764935599999999738e+01
7.628376799999999491e+01
9.225634100000000615e+01
7.537627799999999922e+01
6.607895600000000513e+01
7.858540399999999693e+01
8.731374399999999980e+01
8.224484999999999957e+01
7.394267600000000584e+01
7.214066300000000354e+01
7.069407999999999959e+01
8.252634100000000217e+01
7.488593099999999936e+01
8.226316199999999412e+01
7.283686500000000308e+01
7.567290699999999504e+01
7.569249399999999639e+01
8.352238800000000651e+01
7.917847000000000435e+01
8.100020200000000159e+01
8.272146499999999492e+01
7.508973500000000456e+01
7.348699000000000581e+01
8.493335700000000088e+01
7.688358800000000315e+01
7.516779099999999403e+01
8.689644099999999582e+01
8.495868199999999604e+01
7.478111699999999473e+01
7.276415299999999320e+01
7.985786600000000135e+01
8.244812600000000202e+01
9.154280300000000636e+01
8.066969600000000185e+01
8.435766499999999724e+01
1.042997900000000016e+02
8.319164800000000071e+01
7.854652000000000100e+01
9.442519699999999716e+01
7.705664500000000317e+01
8.855393499999999563e+01
8.122171400000000574e+01
7.583512100000000089e+01
8.454246700000000203e+01
9.253779799999999511e+01
8.600297100000000228e+01
7.342782699999999352e+01
9.048451699999999676e+01
7.569179400000000157e+01
7.832979899999999418e+01
7.739191800000000399e+01
8.245211600000000374e+01
7.812296200000000113e+01
7.912501100000000065e+01
6.371073299999999762e+01
7.021330600000000288e+01
7.289422799999999825e+01
7.547772199999999998e+01
7.921941900000000203e+01
7.743392500000000211e+01
7.543004299999999773e+01
8.470600600000000213e+01
7.802053399999999783e+01
7.053294699999999295e+01
8.576318700000000206e+01
7.434958199999999806e+01
8.065766899999999850e+01
7.458296799999999394e+01
7.173041299999999865e+01
7.502445299999999406e+01
8.133179300000000467e+01
6.896414900000000614e+01
6.873912400000000389e+01
8.914803100000000313e+01
8.473944899999999336e+01
7.192365100000000666e+01
9.857348100000000102e+01
6.798651499999999714e+01
8.797431299999999510e+01
8.440268399999999360e+01
6.655867999999999540e+01
7.579736900000000333e+01
7.695646299999999940e+01
9.897250200000000575e+01
7.817444000000000415e+01
7.227582599999999502e+01
7.026558599999999899e+01
7.200966400000000078e+01
8.369041500000000156e+01
8.746720299999999781e+01
9.393205000000000382e+01
8.398482900000000484e+01
7.942644099999999696e+01
8.005324400000000651e+01
7.641070799999999963e+01
8.259748299999999688e+01
9.043837600000000521e+01
8.308473700000000406e+01
7.819903899999999908e+01
8.563562000000000296e+01
7.012706599999999924e+01
7.786354099999999789e+01
7.219718100000000049e+01
8.410134899999999902e+01
8.346853699999999776e+01
6.654335299999999620e+01
8.726142199999999605e+01
7.407955800000000579e+01
8.131001100000000292e+01
7.473906599999999401e+01
7.870024300000000039e+01
6.471692799999999579e+01
6.827814899999999909e+01
6.061906199999999956e+01
7.928317300000000500e+01
8.208321200000000317e+01
8.826012699999999711e+01
8.261034300000000030e+01
7.855362499999999670e+01
7.191105399999999293e+01
8.274970600000000331e+01
8.418494599999999650e+01
7.912257800000000429e+01
8.148108399999999563e+01
8.504612799999999595e+01
9.559689099999999939e+01
8.026100999999999885e+01
8.046198800000000517e+01
7.972974499999999409e+01
8.094261799999999596e+01
6.684189899999999795e+01
8.099367700000000525e+01
8.125986199999999826e+01
8.514798000000000400e+01
9.756144999999999357e+01
7.395149700000000337e+01
9.320344000000000051e+01
8.469836800000000210e+01
8.071799799999999436e+01
7.587737199999999405e+01
7.929779800000000023e+01
8.498807700000000409e+01
7.857374500000000239e+01
7.963177100000000053e+01
7.883107200000000603e+01
6.338857300000000095e+01
8.444834400000000585e+01
8.298844599999999616e+01
9.102420499999999493e+01
7.773661599999999794e+01
7.731892100000000312e+01
7.670077200000000062e+01
7.349022100000000535e+01
7.668809400000000664e+01
9.243178199999999833e+01
7.843138799999999833e+01
8.245330699999999524e+01
8.400623899999999367e+01
8.259995899999999835e+01
6.549133600000000399e+01
9.065241000000000327e+01
6.981268599999999935e+01
9.310088000000000363e+01
7.263292099999999607e+01
8.216659199999999430e+01
7.829314999999999714e+01
5.978514700000000204e+01
7.723749700000000473e+01
9.496726999999999919e+01
8.720900699999999972e+01
8.306675099999999645e+01
8.846166900000000055e+01
8.009920800000000440e+01
8.063625700000000052e+01
8.462203300000000183e+01
6.942150800000000288e+01
8.606612400000000207e+01
8.598842799999999897e+01
8.320286299999999358e+01
8.568423799999999346e+01
8.873561700000000485e+01
6.801752500000000623e+01
7.726122200000000362e+01
8.060846999999999696e+01
7.308696999999999377e+01
7.575420699999999385e+01
8.321564100000000508e+01
6.889076300000000685e+01
8.363334899999999550e+01
9.092805699999999547e+01
9.132373099999999511e+01
6.619674100000000294e+01
8.345594800000000646e+01
8.217856899999999598e+01
7.559274600000000532e+01
7.823352400000000273e+01
8.210992500000000405e+01
7.557503499999999974e+01
8.487615599999999461e+01
7.294012399999999730e+01
7.594777200000000050e+01
7.033002299999999707e+01
7.677247900000000413e+01
6.739432200000000250e+01
7.567338200000000370e+01
7.420853800000000433e+01
8.115938900000000444e+01
8.011956499999999437e+01
9.043113300000000265e+01
9.262101499999999987e+01
7.711560400000000470e+01
8.621401899999999330e+01
8.190830400000000111e+01
8.684028899999999851e+01
7.476848900000000242e+01
8.492293499999999540e+01
9.094732000000000482e+01
7.539609699999999748e+01
7.188001800000000685e+01
7.273154499999999700e+01
7.358150100000000293e+01
8.007993999999999346e+01
8.080562199999999962e+01
8.572243600000000185e+01
8.494216500000000281e+01
8.549713199999999347e+01
7.236986699999999928e+01
8.271204699999999832e+01
8.380061399999999594e+01
7.732720999999999378e+01
8.023828100000000063e+01
8.800171600000000183e+01
7.431850599999999929e+01
7.813898500000000524e+01
7.832174000000000547e+01
7.653275200000000211e+01
7.915165600000000268e+01
8.379975899999999456e+01
8.642565100000000200e+01
7.206495800000000429e+01
8.961302899999999738e+01
8.690528899999999624e+01
9.934649699999999939e+01
7.280670999999999538e+01
7.970690199999999948e+01
8.570884999999999820e+01
9.610105400000000486e+01
8.326174600000000225e+01
7.594075499999999579e+01
8.114412299999999334e+01
9.457804400000000555e+01
8.228733400000000131e+01
7.849769299999999816e+01
8.309655300000000011e+01
8.822839600000000360e+01
7.508191800000000171e+01
9.070611499999999694e+01
8.121622399999999686e+01
7.301202200000000175e+01
7.560414900000000671e+01
7.579048199999999724e+01
7.279388500000000306e+01
7.989521700000000237e+01
8.052543199999999501e+01
9.082799599999999884e+01
7.968642300000000489e+01
7.859938800000000469e+01
7.312316199999999355e+01
7.705866699999999980e+01
8.388659300000000485e+01
8.304357799999999656e+01
8.894762599999999964e+01
8.587999499999999387e+01
7.216216099999999756e+01
7.654434600000000444e+01
9.011160700000000645e+01
7.030719700000000216e+01
7.621589400000000580e+01
8.535551800000000355e+01
8.121049299999999960e+01
8.830713099999999827e+01
8.624414699999999812e+01
7.965908299999999542e+01
8.517942499999999484e+01
8.809599599999999953e+01
8.553425599999999918e+01
7.550736700000000212e+01
9.116056399999999371e+01
7.382874599999999532e+01
9.877487600000000612e+01
6.286466300000000018e+01
8.038283099999999592e+01
7.941000900000000229e+01
8.961655700000000024e+01
6.889558399999999949e+01
8.196839699999999596e+01
8.122996299999999792e+01
7.862122499999999548e+01
8.150657499999999800e+01
8.515076399999999524e+01
7.477134700000000578e+01
8.225190899999999772e+01
7.825473300000000165e+01
6.742030900000000315e+01
7.046470800000000168e+01
8.756596500000000560e+01
7.991969100000000026e+01
7.796384299999999712e+01
7.579619200000000490e+01
8.377114000000000260e+01
8.416591499999999826e+01
9.298459599999999625e+01
8.157613499999999362e+01
9.373216299999999990e+01
8.014174199999999360e+01
8.107699499999999659e+01
8.074043700000000001e+01
7.105395599999999945e+01
7.282885899999999424e+01
6.711325700000000438e+01
8.400393200000000604e+01
7.867559500000000128e+01
7.796369099999999719e+01
7.999808000000000163e+01
7.507765499999999292e+01
7.979900000000000659e+01
8.616411300000000040e+01
8.271812599999999804e+01
8.602337799999999390e+01
7.926098899999999503e+01
7.645554599999999823e+01
8.630350699999999620e+01
7.367345699999999908e+01
7.767080799999999385e+01
7.113394200000000467e+01
8.436353099999999472e+01
7.311053800000000535e+01
7.235100900000000479e+01
7.956230399999999747e+01
7.606965499999999736e+01
7.683598899999999787e+01
8.163906299999999305e+01
7.623791500000000099e+01
8.683779499999999985e+01
8.402234699999999634e+01
8.327239400000000558e+01
8.424461599999999351e+01
8.024261699999999564e+01
7.104636100000000454e+01
8.408018500000000017e+01
7.731615700000000402e+01
7.079819200000000023e+01
8.931925800000000493e+01
8.261462099999999964e+01
9.728440100000000257e+01
7.805260199999999315e+01
7.612280900000000372e+01
8.109270200000000273e+01
7.651968100000000561e+01
8.237281600000000026e+01
8.000271200000000249e+01
8.057782299999999509e+01
7.439269600000000082e+01
7.931752600000000086e+01
7.015604299999999682e+01
7.627607299999999668e+01
6.717990100000000098e+01
7.667604799999999443e+01
6.667412500000000364e+01
7.758244000000000540e+01
8.467558200000000568e+01
8.058332799999999452e+01
7.428590800000000627e+01
9.556981000000000392e+01
9.156067699999999832e+01
7.895403799999999706e+01
7.594086699999999723e+01
7.388011099999999942e+01
7.615616400000000397e+01
7.878524899999999320e+01
7.458983100000000377e+01
9.093711600000000317e+01
7.815545699999999840e+01
8.013702299999999923e+01
7.629179200000000094e+01
7.088326000000000704e+01
8.168769899999999495e+01
8.562307599999999752e+01
8.758650500000000250e+01
7.496105400000000429e+01
9.329786400000000413e+01
8.339545499999999834e+01
8.409222800000000575e+01
7.950141800000000103e+01
9.250599800000000528e+01
8.728069000000000699e+01
7.566677300000000628e+01
8.598525899999999922e+01
8.278552700000000186e+01
8.402629899999999452e+01
7.698684699999999737e+01
8.578083599999999365e+01
8.103895599999999888e+01
7.242198399999999481e+01
7.804187799999999697e+01
7.877519800000000316e+01
8.569183800000000417e+01
7.807365099999999813e+01
8.699720100000000400e+01
7.668210000000000548e+01
8.299858799999999803e+01
8.220070099999999513e+01
7.367317199999999389e+01
8.397279100000000085e+01
7.283276899999999898e+01
7.736054900000000600e+01
7.761182800000000270e+01
9.146203400000000272e+01
7.249114199999999641e+01
7.547239999999999327e+01
8.479710500000000195e+01
7.175284499999999355e+01
8.058128200000000163e+01
8.807090300000000127e+01
6.864486599999999328e+01
7.741337699999999700e+01
7.441984899999999925e+01
8.036654699999999707e+01
8.524853400000000647e+01
8.751693699999999865e+01
7.251975899999999342e+01
6.963251800000000458e+01
9.427624000000000137e+01
7.552519900000000064e+01
7.778377299999999650e+01
8.622877300000000389e+01
7.043590000000000373e+01
7.560113599999999678e+01
8.693814600000000326e+01
9.221803599999999790e+01
8.388851599999999564e+01
8.011194600000000321e+01
9.505146700000000237e+01
8.056369399999999814e+01
7.907644100000000265e+01
8.043157600000000684e+01
7.442727700000000368e+01
7.446723699999999724e+01
8.844250800000000368e+01
8.177345599999999592e+01
7.450656499999999482e+01
7.681319000000000585e+01
6.971935700000000224e+01
8.038238699999999426e+01
9.176510700000000043e+01
8.375912599999999486e+01
8.202997899999999731e+01
7.824918900000000122e+01
7.544849700000000325e+01
8.558096899999999607e+01
6.786061100000000579e+01
7.909893599999999481e+01
8.457772599999999841e+01
7.837065599999999677e+01
7.270899599999999907e+01
8.871464100000000030e+01
8.148307099999999537e+01
8.019532599999999434e+01
7.898249099999999601e+01
9.871980200000000139e+01
7.387415699999999674e+01
8.683078399999999419e+01
8.221563799999999844e+01
7.260527000000000442e+01
7.385094399999999837e+01
8.030419999999999447e+01
7.924315099999999745e+01
8.037016400000000260e+01
8.676365599999999745e+01
7.442507799999999918e+01
7.618467400000000112e+01
8.234012900000000457e+01
8.053293600000000652e+01
8.540125700000000109e+01
7.217065300000000150e+01
7.527194900000000644e+01
8.120886500000000296e+01
6.685388799999999776e+01
8.274572700000000225e+01
7.250290099999999427e+01
8.022244399999999587e+01
7.314177899999999966e+01
9.511453199999999697e+01
8.406725799999999538e+01
7.627590100000000461e+01
8.822362900000000252e+01
8.561143300000000522e+01
8.247093399999999974e+01
8.361403900000000533e+01
7.570922400000000607e+01
7.589473399999999970e+01
8.523852499999999566e+01
8.187434600000000273e+01
9.490582299999999805e+01
6.683554200000000378e+01
8.470945299999999634e+01
7.546983899999999323e+01
8.095303199999999322e+01
8.642811299999999619e+01
7.555733399999999733e+01
8.728208600000000672e+01
9.028887299999999527e+01
8.286275100000000293e+01
7.715357199999999693e+01
8.363658100000000672e+01
7.743626500000000590e+01
7.522485000000000355e+01
8.365803599999999562e+01
9.851662399999999309e+01
8.395564099999999996e+01
7.488148099999999374e+01
8.561724900000000105e+01
9.045472700000000543e+01
8.483526399999999512e+01
7.572440600000000188e+01
8.559051700000000551e+01
7.311296299999999349e+01
7.451822099999999693e+01
9.247828699999999458e+01
7.037292800000000170e+01
8.005695500000000209e+01
8.105732500000000584e+01
7.852428899999999601e+01
9.681039499999999975e+01
8.379452200000000062e+01
6.993003600000000120e+01
7.766518700000000308e+01
8.322136799999999823e+01
9.098982300000000123e+01
7.244685900000000345e+01
8.424986400000000231e+01
8.230073000000000150e+01
7.922549200000000269e+01
8.476434500000000583e+01
8.047057700000000580e+01
8.733536900000000003e+01
8.697169599999999434e+01
7.736992999999999654e+01
7.950443500000000085e+01
8.443647500000000150e+01
9.448221200000000408e+01
7.997989400000000160e+01
8.080564400000000091e+01
6.733233900000000460e+01
7.867598499999999717e+01
8.211361300000000085e+01
9.102546100000000706e+01
8.459241000000000099e+01
7.711817899999999781e+01
7.769513800000000003e+01
8.251911699999999428e+01
7.469208199999999920e+01
8.777581499999999437e+01
8.607149599999999623e+01
7.916579299999999364e+01
7.964386600000000271e+01
9.360966600000000426e+01
8.195105200000000423e+01
7.664212600000000464e+01
9.045762899999999718e+01
9.018787700000000029e+01
7.671805600000000425e+01
7.902549000000000490e+01
8.385141099999999881e+01
8.730154500000000439e+01
7.464643399999999929e+01
6.299003199999999936e+01
7.471320799999999451e+01
8.328855799999999476e+01
8.603432399999999802e+01
9.197977400000000614e+01
9.022080200000000616e+01
8.380334499999999309e+01
7.965336000000000638e+01
7.708923400000000470e+01
7.704723500000000058e+01
7.558551500000000090e+01
9.305744300000000635e+01
8.625189100000000053e+01
8.812163099999999361e+01
8.648625099999999577e+01
7.634030099999999663e+01
7.228748799999999619e+01
8.051368899999999940e+01
7.860276500000000510e+01
8.236053099999999461e+01
8.180221500000000390e+01
8.007601300000000322e+01
7.705023300000000575e+01
7.731014399999999398e+01
8.448937899999999956e+01
7.365939400000000603e+01
9.092369200000000262e+01
8.089479500000000201e+01
6.733561199999999758e+01
7.955617999999999768e+01
8.311646899999999505e+01
6.878619700000000137e+01
8.187371199999999760e+01
6.745493000000000450e+01
9.348227599999999882e+01
7.909820100000000309e+01
7.780076900000000251e+01
7.228615600000000541e+01
8.228265500000000543e+01
8.846873899999999935e+01
7.619315000000000282e+01
7.181353500000000167e+01
8.573278200000000027e+01
9.331085500000000366e+01
8.508057700000000523e+01
8.337623200000000168e+01
8.209434799999999655e+01
7.696051900000000501e+01
6.991394300000000328e+01
7.630708099999999661e+01
8.142841400000000363e+01
7.644481199999999887e+01
7.344630200000000286e+01
8.396297099999999602e+01
7.684144399999999564e+01
7.796485300000000507e+01
8.129304999999999382e+01
8.513027099999999336e+01
8.277708300000000463e+01
6.273066899999999890e+01
7.421062600000000486e+01
8.210496999999999446e+01
9.289922799999999370e+01
7.765577799999999797e+01
7.915745400000000132e+01
7.981429599999999880e+01
7.000386199999999803e+01
8.051958700000000135e+01
7.152620899999999438e+01
6.977309200000000544e+01
7.741826899999999512e+01
7.383419800000000066e+01
8.185166900000000112e+01
8.416749900000000650e+01
8.854371199999999931e+01
6.379670899999999989e+01
7.558471199999999612e+01
9.193552800000000502e+01
8.704626500000000533e+01
8.032784700000000555e+01
8.043552999999999997e+01
9.142854699999999468e+01
8.146925400000000650e+01
8.721883099999999445e+01
7.961865500000000395e+01
7.744071300000000235e+01
7.510673900000000458e+01
7.828822800000000370e+01
8.237576599999999871e+01
8.214594200000000512e+01
8.246660300000000632e+01
8.108875899999999604e+01
7.553047499999999559e+01
8.558633199999999874e+01
8.604635000000000389e+01
8.968087699999999529e+01
8.536184500000000241e+01
7.944916499999999360e+01
6.945503999999999678e+01
7.546356600000000014e+01
9.250073999999999330e+01
8.553924100000000408e+01
7.220499700000000587e+01
8.844553799999999910e+01
6.612417200000000150e+01
8.377537100000000692e+01
7.801833000000000595e+01
7.008270699999999920e+01
7.118725899999999740e+01
8.530598299999999767e+01
8.917760800000000643e+01
7.986669600000000457e+01
9.268395200000000500e+01
7.937258500000000083e+01
7.850988900000000115e+01
9.541366200000000219e+01
7.887324999999999875e+01
9.109959499999999366e+01
9.263735800000000609e+01
6.972134099999999535e+01
8.791980599999999413e+01
8.098895699999999920e+01
8.915553800000000706e+01
7.785868800000000078e+01
7.925286900000000401e+01
7.045265100000000302e+01
8.500387899999999775e+01
7.810962299999999914e+01
9.458224599999999782e+01
8.260934699999999964e+01
8.990893099999999549e+01
7.386255500000000040e+01
7.264188599999999951e+01
6.982144099999999298e+01
8.911324299999999710e+01
6.931950100000000248e+01
8.534829299999999819e+01
7.100675699999999324e+01
7.833369100000000174e+01
7.475358099999999695e+01
8.231783599999999979e+01
7.958280399999999588e+01
8.648812399999999911e+01
8.324837899999999991e+01
7.118112600000000612e+01
7.986628799999999728e+01
7.645085600000000170e+01
7.459950700000000268e+01
8.258218100000000561e+01
7.960112100000000623e+01
8.528446599999999478e+01
7.829481199999999319e+01
9.042812100000000441e+01
8.128331900000000587e+01
7.942283899999999619e+01
8.726315300000000263e+01
8.067182200000000591e+01
9.313294799999999896e+01
9.146472400000000391e+01
8.430784599999999784e+01
7.919590700000000538e+01
8.301448700000000258e+01
8.304621600000000115e+01
8.830533300000000452e+01
9.212025400000000275e+01
8.892037600000000452e+01
8.033826600000000440e+01
7.996768099999999890e+01
8.929897800000000530e+01
7.419055899999999326e+01
8.212276300000000617e+01
7.239320600000000638e+01
8.083123899999999651e+01
8.123244300000000351e+01
7.039074499999999546e+01
8.893331799999999987e+01
8.554900000000000659e+01
8.082983600000000024e+01
6.942176800000000014e+01
7.172291500000000042e+01
7.935008600000000456e+01
9.523429899999999293e+01
7.368828499999999337e+01
7.124004399999999748e+01
8.410567899999999497e+01
8.415018000000000598e+01
7.303962900000000502e+01
8.901987599999999645e+01
7.137560899999999720e+01
8.807950900000000161e+01
7.891076300000000288e+01
8.712662100000000009e+01
7.733848399999999401e+01
8.125674499999999512e+01
8.769887199999999439e+01
7.873287200000000041e+01
8.838479999999999848e+01
7.783511599999999930e+01
6.902798400000000356e+01
7.353949900000000639e+01
8.217471799999999860e+01
7.908039499999999578e+01
7.885784099999999341e+01
7.807285400000000664e+01
8.201702400000000637e+01
7.636563700000000665e+01
7.450717699999999866e+01
8.773317000000000121e+01
7.664807600000000321e+01
7.971192499999999370e+01
8.510609300000000133e+01
7.479956900000000530e+01
7.116865900000000522e+01
8.205786399999999503e+01
7.542652300000000309e+01
7.852308600000000638e+01
8.359404399999999669e+01
8.540012099999999862e+01
7.397563499999999692e+01
8.572519200000000694e+01
8.669200499999999465e+01
8.676273399999999469e+01
8.802406399999999564e+01
9.076077600000000700e+01
8.112864399999999421e+01
8.098485499999999604e+01
8.010276100000000099e+01
8.259446099999999547e+01
7.747984700000000657e+01
7.844174599999999486e+01
8.216944200000000365e+01
7.346310300000000382e+01
8.250522599999999329e+01
8.604788499999999374e+01
6.824739999999999895e+01
8.105675300000000050e+01
7.922562899999999786e+01
8.496208900000000597e+01
8.114473599999999465e+01
8.438122400000000312e+01
7.975669700000000262e+01
7.053774599999999850e+01
7.769080800000000409e+01
8.642239200000000210e+01
7.722251199999999471e+01
8.523973300000000108e+01
7.486924199999999985e+01
7.948379400000000317e+01
7.546444200000000535e+01
7.928615600000000541e+01
8.071777699999999811e+01
6.966922900000000141e+01
7.437007300000000498e+01
6.771830099999999675e+01
8.897829099999999869e+01
8.479746600000000001e+01
8.349689200000000255e+01
7.798063000000000500e+01
8.067290300000000514e+01
8.667596299999999587e+01
7.521861199999999315e+01
7.412790800000000502e+01
8.491862299999999664e+01
8.488955799999999385e+01
7.883834600000000137e+01
7.439338899999999910e+01
7.729869899999999916e+01
8.505134200000000533e+01
9.062289400000000228e+01
7.463213199999999858e+01
8.725701800000000219e+01
8.709543999999999642e+01
8.392796199999999374e+01
6.278284899999999880e+01
8.070699299999999710e+01
7.414500999999999920e+01
7.981170600000000093e+01
8.512261599999999362e+01
8.547493500000000211e+01
7.477842099999999448e+01
7.935861199999999371e+01
8.508361200000000224e+01
8.375738599999999678e+01
8.622016399999999692e+01
8.447889499999999430e+01
8.897470599999999763e+01
8.720911399999999958e+01
9.097346400000000699e+01
8.133616200000000163e+01
8.059705900000000156e+01
8.062197500000000616e+01
8.618711500000000569e+01
9.460952699999999993e+01
8.575127500000000680e+01
9.583003100000000529e+01
8.125438099999999508e+01
8.194389800000000434e+01
8.848201400000000660e+01
7.109092400000000112e+01
7.950099699999999814e+01
7.673307200000000705e+01
7.539390799999999615e+01
8.416162699999999575e+01
7.440324499999999830e+01
8.080120399999999847e+01
7.815644899999999495e+01
8.410187600000000430e+01
7.464937700000000120e+01
7.518091900000000294e+01
7.485828600000000677e+01
8.153717100000000073e+01
7.062348799999999471e+01
1.007220800000000054e+02
7.560033500000000117e+01
8.559916300000000433e+01
7.437455799999999329e+01
8.858983200000000124e+01
7.275667500000000132e+01
8.481925699999999324e+01
8.427986799999999334e+01
8.919136000000000308e+01
7.827302099999999996e+01
8.451863199999999665e+01
8.167494100000000401e+01
8.052048899999999776e+01
6.498167300000000068e+01
7.553313400000000399e+01
8.275248299999999801e+01
9.119913300000000334e+01
7.128645299999999452e+01
8.314179199999999526e+01
8.047190299999999752e+01
8.373458899999999971e+01
6.822192300000000387e+01
7.676858199999999499e+01
7.778375400000000184e+01
7.962967299999999682e+01
7.583871800000000007e+01
8.596324400000000310e+01
7.736957599999999502e+01
8.471538599999999519e+01
9.459846699999999942e+01
7.328112099999999884e+01
9.012060400000000016e+01
7.625584899999999777e+01
7.138338500000000408e+01
8.354461000000000581e+01
8.464515099999999848e+01
8.066821600000000103e+01
7.728107099999999718e+01
9.734239100000000633e+01
7.144527700000000436e+01
8.204572299999999530e+01
8.302100500000000238e+01
7.784789299999999912e+01
8.092449200000000076e+01
8.200733499999999765e+01
8.766064500000000237e+01
9.525774800000000653e+01
9.028510599999999897e+01
8.311671699999999419e+01
9.228004400000000373e+01
7.381435399999999447e+01
7.583748400000000345e+01
9.637693299999999397e+01
7.896383799999999553e+01
6.974375799999999970e+01
8.330437100000000328e+01
7.415843099999999311e+01
7.463871100000000069e+01
7.379917500000000530e+01
8.499974500000000432e+01
7.806162199999999984e+01
8.216465999999999781e+01
7.655882900000000291e+01
8.950768100000000516e+01
7.615398799999999824e+01
8.228313699999999642e+01
8.922915299999999661e+01
8.960193800000000408e+01
8.082593900000000531e+01
7.549011600000000044e+01
8.699759899999999391e+01
8.110041800000000478e+01
9.341259700000000521e+01
9.258683299999999861e+01
8.210624199999999462e+01
9.214748000000000161e+01
7.205892699999999707e+01
8.300313300000000538e+01
7.194919400000000564e+01
7.938492999999999711e+01
8.265795500000000118e+01
7.818983000000000061e+01
8.385405799999999488e+01
8.717704000000000519e+01
8.886288000000000409e+01
7.465157899999999813e+01
7.417630900000000338e+01
7.536905500000000302e+01
7.756509300000000451e+01
8.187113600000000702e+01
8.764039699999999300e+01
8.430266899999999453e+01
8.900432800000000100e+01
7.494953399999999988e+01
8.778505300000000489e+01
7.724163500000000226e+01
7.909189899999999795e+01
7.854138299999999617e+01
8.773081700000000183e+01
7.931284599999999330e+01
8.801279300000000205e+01
8.749819599999999298e+01
8.492088699999999335e+01
7.522254300000000171e+01
7.886952100000000598e+01
8.253358699999999715e+01
7.307469600000000298e+01
8.240967600000000459e+01
7.509072500000000616e+01
7.988398399999999810e+01
7.797392800000000079e+01
9.699426400000000115e+01
6.967088400000000092e+01
6.988612799999999936e+01
8.218336499999999489e+01
8.465314700000000414e+01
7.952700799999999504e+01
7.688579000000000008e+01
8.694341799999999409e+01
7.363897699999999702e+01
9.181563699999999528e+01
8.077959699999999543e+01
8.205227800000000116e+01
8.524157599999999491e+01
9.321292300000000353e+01
7.991297600000000045e+01
7.021133399999999369e+01
7.940929800000000682e+01
8.461719499999999528e+01
6.570232500000000186e+01
8.970087200000000394e+01
8.527052000000000476e+01
1.016538199999999961e+02
8.588061700000000087e+01
8.851103100000000268e+01
8.356371199999999533e+01
8.201434199999999919e+01
7.239605699999999899e+01
8.204415899999999340e+01
8.802023300000000461e+01
8.146905300000000238e+01
7.802720399999999756e+01
7.955113199999999551e+01
6.987337899999999991e+01
8.746817799999999465e+01
9.860188999999999737e+01
8.199482500000000584e+01
8.565205500000000427e+01
8.760060199999999497e+01
7.059832699999999761e+01
9.181792299999999329e+01
8.637393899999999292e+01
7.173417800000000000e+01
8.833963199999999460e+01
7.925032299999999452e+01
7.761080800000000579e+01
7.313860999999999990e+01
7.667792500000000189e+01
7.276743399999999440e+01
7.804981399999999780e+01
7.600694699999999671e+01
7.918238999999999805e+01
8.406888999999999612e+01
8.128681899999999416e+01
8.182154699999999536e+01
7.966685099999999409e+01
7.686511400000000549e+01
8.007819600000000548e+01
7.898421399999999437e+01
9.322015600000000290e+01
8.397165400000000091e+01
8.355777999999999395e+01
8.019732000000000482e+01
7.515390899999999874e+01
7.901972999999999558e+01
8.175264099999999701e+01
7.240146199999999510e+01
8.187334699999999543e+01
7.756481800000000248e+01
8.316524699999999370e+01
7.101299799999999607e+01
6.737168499999999938e+01
7.890257900000000291e+01
7.318000200000000177e+01
7.964993099999999515e+01
7.775439199999999573e+01
7.805815499999999929e+01
7.832996300000000645e+01
7.709641200000000083e+01
7.090757499999999425e+01
8.909488199999999836e+01
7.860516699999999446e+01
5.964721000000000117e+01
8.570232300000000691e+01
7.708445100000000139e+01
6.685428500000000440e+01
8.506989799999999491e+01
7.203288700000000233e+01
6.507082599999999672e+01
7.945947900000000175e+01
8.636073299999999620e+01
8.470729300000000705e+01
7.861058599999999785e+01
6.936314900000000705e+01
9.361754399999999521e+01
8.679880900000000565e+01
8.565804699999999627e+01
6.838388299999999731e+01
8.006658899999999335e+01
8.178570999999999458e+01
8.274644700000000341e+01
8.463034700000000043e+01
8.539778300000000399e+01
8.729537999999999442e+01
8.316510599999999442e+01
8.443549899999999298e+01
8.852796700000000385e+01
8.075624399999999525e+01
8.387287000000000603e+01
8.164806299999999339e+01
8.212160599999999988e+01
8.380006000000000199e+01
8.676143199999999922e+01
8.401931700000000092e+01
8.559489200000000153e+01
8.274968099999999538e+01
7.667261100000000340e+01
7.825888899999999637e+01
8.057596700000000567e+01
9.565471499999999594e+01
8.995747000000000071e+01
7.048444499999999380e+01
9.624429999999999552e+01
8.637798499999999535e+01
8.390103399999999567e+01
8.374612899999999627e+01
8.226194800000000384e+01
8.085001300000000413e+01
8.788499500000000353e+01
7.342971799999999405e+01
7.095008400000000393e+01
7.719093399999999860e+01
9.923293499999999767e+01
8.142455400000000054e+01
8.107644899999999666e+01
8.614111400000000174e+01
8.371225499999999897e+01
7.480164999999999509e+01
8.297686199999999701e+01
7.491535500000000525e+01
7.036044200000000615e+01
6.983768100000000345e+01
8.862908000000000186e+01
8.626013000000000375e+01
8.774312799999999868e+01
7.067705300000000079e+01
6.830774200000000462e+01
7.935650599999999599e+01
7.652597199999999589e+01
9.170311100000000692e+01
8.322062300000000334e+01
7.222256699999999796e+01
7.376163499999999829e+01
8.225258999999999787e+01
7.389794100000000299e+01
8.148640100000000075e+01
8.789488900000000626e+01
8.257420999999999367e+01
8.643660400000000266e+01
8.630202900000000454e+01
8.606117799999999818e+01
8.459847800000000007e+01
8.130326100000000622e+01
7.730624799999999652e+01
8.067772800000000188e+01
6.956919700000000262e+01
7.657413300000000334e+01
9.575131299999999612e+01
7.454235599999999806e+01
8.144599200000000394e+01
8.649684700000000248e+01
8.024463599999999985e+01
7.479176599999999553e+01
8.050152199999999425e+01
7.601153800000000160e+01
7.893259500000000628e+01
7.504138799999999776e+01
8.012708600000000558e+01
7.941734200000000499e+01
8.170028899999999794e+01
8.069682699999999897e+01
7.227525900000000547e+01
8.552374799999999766e+01
8.073708100000000343e+01
7.304529700000000503e+01
7.652484200000000669e+01
7.696773399999999299e+01
7.788918099999999356e+01
8.403172700000000361e+01
8.124845100000000286e+01
8.494120700000000568e+01
7.900200999999999851e+01
8.322719800000000134e+01
7.357045300000000054e+01
8.468061799999999550e+01
7.698742199999999514e+01
8.894820099999999741e+01
7.793436900000000378e+01
7.798250899999999319e+01
7.205701399999999524e+01
7.282502800000000320e+01
8.669206099999999537e+01
7.732586799999999982e+01
8.720629900000000134e+01
6.756443000000000154e+01
8.191529199999999378e+01
7.108036400000000299e+01
8.051766399999999635e+01
8.110135300000000314e+01
6.878495800000000315e+01
7.357582999999999629e+01
7.317398300000000688e+01
7.578949099999999817e+01
7.963737100000000169e+01
8.314784299999999462e+01
9.319653200000000481e+01
7.404769799999999691e+01
7.045384900000000528e+01
8.052642799999999568e+01
9.034257399999999905e+01
8.514134500000000116e+01
7.934120199999999556e+01
8.330288500000000340e+01
9.437176399999999887e+01
7.590248599999999612e+01
7.221556300000000306e+01
8.425810300000000552e+01
7.892785499999999388e+01
7.484311700000000656e+01
7.680400899999999353e+01
7.513084899999999777e+01
7.559733599999999853e+01
8.816963900000000365e+01
8.697430199999999445e+01
7.134888200000000325e+01
8.323904100000000028e+01
8.633216199999999674e+01
8.728994000000000142e+01
8.681130799999999681e+01
7.367014199999999846e+01
7.649554000000000542e+01
7.484612400000000321e+01
7.255097700000000316e+01
8.848003599999999835e+01
8.699070100000000139e+01
7.771294100000000071e+01
7.848063000000000500e+01
8.307662700000000200e+01
7.124051599999999951e+01
8.290660699999999395e+01
7.784255100000000027e+01
8.600097499999999684e+01
8.401820299999999975e+01
7.352210800000000290e+01
8.239710399999999879e+01
7.696134200000000192e+01
9.466251200000000665e+01
8.155861099999999908e+01
8.058464299999999980e+01
8.550415999999999883e+01
8.273979500000000087e+01
8.824084299999999814e+01
7.756811199999999928e+01
7.564173099999999295e+01
7.724130399999999952e+01
7.908859900000000209e+01
8.405592199999999536e+01
8.913282599999999434e+01
7.171936100000000636e+01
7.983053700000000674e+01
6.677130999999999972e+01
7.710367700000000468e+01
8.843596399999999846e+01
7.322803000000000395e+01
7.729918899999999837e+01
8.384504099999999482e+01
8.181866300000000081e+01
7.374593900000000701e+01
9.205898500000000695e+01
8.029736900000000333e+01
9.628952700000000675e+01
9.101479000000000497e+01
8.126569700000000296e+01
7.712408800000000042e+01
8.110929299999999387e+01
8.263952299999999696e+01
8.509531699999999432e+01
8.365926899999999478e+01
8.378924200000000155e+01
8.683981400000000406e+01
6.246221299999999843e+01
7.070855799999999647e+01
7.666893699999999967e+01
7.648669099999999332e+01
7.536184000000000083e+01
8.632581700000000069e+01
8.168877399999999511e+01
8.480897899999999368e+01
7.688513700000000028e+01
7.075786399999999787e+01
8.476255799999999851e+01
7.105074700000000121e+01
8.033464999999999634e+01
9.644843799999999590e+01
8.605170099999999422e+01
9.067328999999999439e+01
8.561772999999999456e+01
8.309222800000000575e+01
7.549343700000000013e+01
7.887569000000000585e+01
9.582855999999999597e+01
7.042010899999999651e+01
7.673484100000000296e+01
9.424049800000000232e+01
7.203387100000000487e+01
7.641258299999999792e+01
8.829282800000000009e+01
8.563233999999999924e+01
9.292604199999999537e+01
8.499986199999999315e+01
8.464087899999999820e+01
8.205291599999999619e+01
7.768644799999999861e+01
8.639929100000000517e+01
7.510144499999999823e+01
9.303219099999999742e+01
8.736704199999999787e+01
7.922515199999999425e+01
8.591342699999999866e+01
8.447847299999999393e+01
7.931287700000000029e+01
8.712527799999999445e+01
8.726156899999999439e+01
9.692093699999999501e+01
7.603386600000000328e+01
7.318333699999999453e+01
7.706843600000000549e+01
7.823003199999999424e+01
8.053015100000000359e+01
7.360258500000000481e+01
7.623578399999999533e+01
7.258915100000000109e+01
8.593604499999999291e+01
7.370658400000000654e+01
8.292288200000000131e+01
7.716650599999999827e+01
8.609153499999999326e+01
8.009920800000000440e+01
8.142846900000000687e+01
7.121836999999999307e+01
7.470985400000000709e+01
8.388951299999999378e+01
8.209967500000000484e+01
7.627190000000000225e+01
8.340009899999999732e+01
7.000454200000000071e+01
6.944878300000000593e+01
7.887149300000000096e+01
8.317110800000000381e+01
7.869004999999999939e+01
7.357667700000000366e+01
8.978170599999999979e+01
7.368687799999999299e+01
8.702420999999999651e+01
8.173348799999999414e+01
7.728999799999999709e+01
7.239620899999999892e+01
9.016686199999999474e+01
8.572670300000000054e+01
8.624067800000000261e+01
7.862731100000000595e+01
7.399777799999999672e+01
8.246879699999999502e+01
8.517092399999999941e+01
8.195548700000000508e+01
8.394001699999999744e+01
7.443874599999999475e+01
8.032181699999999580e+01
7.396114300000000696e+01
7.136961100000000613e+01
7.980513899999999694e+01
7.724011199999999633e+01
8.776344000000000278e+01
9.377312399999999570e+01
7.929198700000000599e+01
9.156885699999999417e+01
9.312749100000000624e+01
6.977807599999999866e+01
8.227426199999999312e+01
7.159542100000000175e+01
9.021267899999999429e+01
8.099873499999999638e+01
7.778894300000000328e+01
7.645112199999999802e+01
6.989546400000000403e+01
7.539432999999999652e+01
7.368569399999999803e+01
7.824564599999999359e+01
7.194667200000000662e+01
7.600128100000000586e+01
7.301845199999999636e+01
7.787139700000000175e+01
7.918334099999999864e+01
7.759666500000000156e+01
8.379798800000000369e+01
8.606944500000000176e+01
6.284686500000000109e+01
8.789266399999999635e+01
8.607748499999999581e+01
8.991074700000000064e+01
8.039438499999999976e+01
8.568487799999999766e+01
7.763333199999999579e+01
7.718001399999999990e+01
8.238082699999999647e+01
7.178571399999999869e+01
8.643640600000000518e+01
7.618213199999999574e+01
8.200949699999999609e+01
6.315281499999999681e+01
8.670470100000000002e+01
8.049394900000000064e+01
7.539460400000000107e+01
7.710778600000000438e+01
1.014355300000000000e+02
7.608680999999999983e+01
8.422730699999999615e+01
8.013763500000000306e+01
8.259489700000000312e+01
8.409359899999999755e+01
8.323687999999999931e+01
8.675522200000000339e+01
7.384416299999999467e+01
7.502946099999999774e+01
7.448198499999999456e+01
8.476031600000000310e+01
8.402923499999999990e+01
6.524394399999999905e+01
8.404786799999999403e+01
7.531693900000000497e+01
7.696154400000000351e+01
8.421508699999999692e+01
8.217706200000000649e+01
6.751573700000000144e+01
7.625943200000000388e+01
8.996192100000000380e+01
7.122298000000000684e+01
8.245876599999999712e+01
7.765086900000000014e+01
7.868949299999999880e+01
8.951683500000000038e+01
7.291109500000000310e+01
7.873794999999999789e+01
9.064933700000000272e+01
8.896248900000000503e+01
8.167950899999999592e+01
9.839682600000000434e+01
8.068251999999999668e+01
7.903380500000000097e+01
8.243709599999999682e+01
8.394574900000000639e+01
8.492513399999999990e+01
8.197172000000000480e+01
7.942345600000000161e+01
8.203758200000000045e+01
7.229308100000000081e+01
8.163705099999999959e+01
7.342697800000000541e+01
9.081331400000000542e+01
8.993719099999999855e+01
8.091802199999999345e+01
6.977416200000000401e+01
9.161797900000000539e+01
7.691009200000000590e+01
8.406501699999999744e+01
8.611299800000000459e+01
7.714536999999999978e+01
7.865155599999999936e+01
7.253857499999999447e+01
8.314162899999999468e+01
7.623401900000000353e+01
7.781762000000000512e+01
8.405269199999999330e+01
8.369605900000000531e+01
8.448374200000000656e+01
7.657455500000000370e+01
7.373009700000000066e+01
8.163829099999999528e+01
7.920992300000000341e+01
7.969014199999999448e+01
6.806871300000000247e+01
8.340912299999999391e+01
6.877043999999999357e+01
8.213575799999999560e+01
9.357386400000000037e+01
8.525883600000000229e+01
7.088905599999999652e+01
8.168176099999999451e+01
7.914497699999999725e+01
7.470086399999999571e+01
7.942294200000000615e+01
7.996432199999999568e+01
7.931453999999999382e+01
8.521871000000000151e+01
7.963956399999999292e+01
8.449102600000000507e+01
7.898410599999999704e+01
7.494924500000000478e+01
7.633621100000000581e+01
8.296532700000000204e+01
7.784617500000000234e+01
7.888121599999999489e+01
7.436531999999999698e+01
8.220458200000000204e+01
7.587490699999999322e+01
8.096159799999999507e+01
7.422477800000000059e+01
7.566915199999999686e+01
7.811246800000000690e+01
6.986534699999999987e+01
8.612820499999999413e+01
7.886351600000000417e+01
9.643807499999999777e+01
8.147113799999999628e+01
8.843218000000000245e+01
7.387845099999999832e+01
7.518793300000000102e+01
8.657638599999999940e+01
8.079885899999999310e+01
8.056618199999999774e+01
8.592942499999999484e+01
8.150188199999999483e+01
8.879618200000000172e+01
8.072680800000000545e+01
7.224457999999999913e+01
7.518620500000000106e+01
6.547262499999999363e+01
8.612130200000000002e+01
8.038064599999999871e+01
7.396144999999999925e+01
8.637645799999999952e+01
6.904756799999999828e+01
7.948937599999999293e+01
9.011279199999999889e+01
7.896655499999999961e+01
8.571899200000000008e+01
8.665367100000000278e+01
6.750826000000000704e+01
8.609057400000000371e+01
9.460869700000000648e+01
8.749229099999999448e+01
8.301761600000000385e+01
7.300788799999999412e+01
8.838321700000000192e+01
7.362282100000000185e+01
8.519779599999999675e+01
8.989200800000000413e+01
9.476254199999999628e+01
7.828403099999999881e+01
8.348872199999999566e+01
8.011854900000000157e+01
8.759438600000000008e+01
8.091622599999999466e+01
7.755962800000000357e+01
8.249000800000000311e+01
7.638828800000000285e+01
7.791272800000000132e+01
7.833940099999999518e+01
7.689937000000000467e+01
7.802706100000000333e+01
9.565327399999999614e+01
7.589400600000000452e+01
7.920297200000000259e+01
7.772476199999999835e+01
8.803308499999999981e+01
7.766586499999999660e+01
8.109491300000000535e+01
9.137459599999999682e+01
7.545430600000000254e+01
9.041433100000000422e+01
8.856442300000000500e+01
8.656645699999999977e+01
7.302819599999999411e+01
8.873379900000000475e+01
8.940793100000000493e+01
9.349451100000000281e+01
7.797417799999999488e+01
7.237595799999999713e+01
6.795754800000000273e+01
7.286805099999999413e+01
7.326602200000000664e+01
8.679458200000000545e+01
7.948680699999999888e+01
8.239376099999999781e+01
8.198269399999999507e+01
8.237109499999999684e+01
8.243104300000000251e+01
9.478468900000000019e+01
7.687976799999999855e+01
6.987645600000000456e+01
7.738494599999999934e+01
8.266933299999999463e+01
7.274962700000000382e+01
7.557948799999999778e+01
7.754142899999999372e+01
6.411579500000000564e+01
7.831089900000000625e+01
6.461128100000000529e+01
8.295221899999999948e+01
7.254956599999999867e+01
6.981535300000000177e+01
7.911594300000000146e+01
9.657016799999999535e+01
8.920986399999999605e+01
8.415739899999999807e+01
8.279490800000000661e+01
7.407313000000000613e+01
7.417734600000000000e+01
7.489259400000000255e+01
8.107000200000000234e+01
7.926426200000000222e+01
8.386346100000000092e+01
8.515123099999999567e+01
7.419310400000000527e+01
6.931451800000000674e+01
8.679346499999999764e+01
7.399614200000000608e+01
7.030230400000000657e+01
8.922418700000000058e+01
7.422602000000000544e+01
7.958528099999999483e+01
7.569225900000000706e+01
8.568092500000000200e+01
7.955344599999999389e+01
8.196863299999999697e+01
7.698181800000000408e+01
9.487236199999999542e+01
8.231158800000000042e+01
9.319325200000000109e+01
7.726585699999999690e+01
8.078542699999999854e+01
7.887334699999999543e+01
8.465578200000000209e+01
7.350182900000000075e+01
7.878449999999999420e+01
9.379745800000000600e+01
8.512126700000000312e+01
7.585156499999999369e+01
7.743856999999999857e+01
8.381759900000000130e+01
8.698660800000000393e+01
8.146954200000000412e+01
8.103732499999999561e+01
8.723662400000000616e+01
8.516694599999999582e+01
8.217249200000000542e+01
8.113150899999999410e+01
9.178008300000000474e+01
8.032981399999999894e+01
7.637715500000000191e+01
8.519670600000000604e+01
8.098288900000000012e+01
8.410399599999999509e+01
8.411811400000000560e+01
8.515071500000000526e+01
7.544637600000000077e+01
7.901777599999999779e+01
7.889080800000000693e+01
7.566711800000000210e+01
8.421940999999999633e+01
8.066939700000000357e+01
8.374359200000000669e+01
9.228521700000000294e+01
7.264919799999999839e+01
7.259395499999999402e+01
8.142675300000000504e+01
7.997127000000000407e+01
7.066367200000000537e+01
7.021292200000000605e+01
8.690192799999999806e+01
8.030314400000000319e+01
8.460415000000000418e+01
8.759109200000000328e+01
7.120070400000000177e+01
7.796916299999999467e+01
8.973584599999999512e+01
7.334490200000000470e+01
7.997499899999999684e+01
7.716214600000000701e+01
8.531625400000000070e+01
7.905075200000000279e+01
7.628141599999999301e+01
7.944069700000000012e+01
7.381261899999999798e+01
8.548500400000000354e+01
8.161463399999999524e+01
7.635155899999999463e+01
8.509718900000000019e+01
8.679384699999999953e+01
7.143386499999999728e+01
7.591177700000000073e+01
9.024856900000000337e+01
7.718101400000000467e+01
7.300056600000000628e+01
7.786334499999999537e+01
8.602223700000000406e+01
7.341754799999999648e+01
7.877476000000000056e+01
8.505867800000000045e+01
8.056450200000000450e+01
9.620538799999999924e+01
7.632202200000000403e+01
7.931371699999999691e+01
7.884950600000000520e+01
7.117456400000000372e+01
9.235836399999999458e+01
7.721308700000000158e+01
7.763667200000000435e+01
7.250376799999999378e+01
6.741304599999999425e+01
9.506753399999999488e+01
8.284899400000000469e+01
8.310166999999999859e+01
8.033522700000000327e+01
7.717160800000000620e+01
8.148966500000000224e+01
7.354839400000000182e+01
7.748895600000000172e+01
8.468659999999999854e+01
8.155832700000000557e+01
8.165174199999999871e+01
8.515155099999999777e+01
7.249173399999999390e+01
9.151520999999999617e+01
7.828369600000000617e+01
8.792004799999999420e+01
7.507653600000000438e+01
8.396898699999999849e+01
7.849063499999999749e+01
8.193915300000000457e+01
7.991869300000000464e+01
9.024250600000000588e+01
7.825504999999999711e+01
8.344760399999999834e+01
6.943702399999999386e+01
8.075846500000000106e+01
8.596432599999999979e+01
9.046152100000000473e+01
9.175388599999999428e+01
7.689800700000000688e+01
8.006292799999999943e+01
7.720242600000000266e+01
7.744253100000000245e+01
7.721807499999999891e+01
7.049317600000000539e+01
6.879422099999999318e+01
8.582524200000000292e+01
8.988427699999999732e+01
7.793983099999999808e+01
9.732905399999999929e+01
8.154274800000000312e+01
7.245905299999999727e+01
9.030052299999999832e+01
7.987543399999999849e+01
8.095733300000000554e+01
8.866096600000000194e+01
7.601804799999999318e+01
7.765609700000000259e+01
8.763700699999999699e+01
7.143399100000000601e+01
7.597231999999999630e+01
7.985322100000000489e+01
7.972257899999999609e+01
9.391660299999999495e+01
9.082244599999999934e+01
7.722719999999999629e+01
8.303110999999999819e+01
7.588559700000000419e+01
8.489265100000000075e+01
8.451611200000000679e+01
8.406348699999999496e+01
6.896704699999999377e+01
9.076744600000000673e+01
7.425052999999999770e+01
8.459588200000000313e+01
7.029573100000000352e+01
6.925738200000000688e+01
8.916524300000000380e+01
7.700495100000000548e+01
8.359617500000000234e+01
7.524775699999999290e+01
8.361618199999999490e+01
8.002791799999999967e+01
8.325553100000000484e+01
7.222626900000000205e+01
7.213514800000000093e+01
8.457288599999999690e+01
7.556448899999999469e+01
7.461619299999999555e+01
8.438932900000000359e+01
7.413338400000000661e+01
6.477216300000000615e+01
6.764077299999999582e+01
7.606111199999999428e+01
7.875342200000000048e+01
7.558026599999999462e+01
8.977100599999999986e+01
7.915027299999999855e+01
8.305623400000000345e+01
7.315260299999999916e+01
8.058902000000000498e+01
8.076849699999999643e+01
7.145110999999999990e+01
8.017084300000000496e+01
8.225239999999999441e+01
7.357135200000000452e+01
8.706114100000000633e+01
7.603253499999999576e+01
9.145584999999999809e+01
8.567971799999999405e+01
7.850695000000000334e+01
7.169073899999999355e+01
6.195483099999999865e+01
7.137863500000000272e+01
7.887547499999999445e+01
8.466810599999999454e+01
1.019150300000000016e+02
7.950097399999999936e+01
7.578342800000000068e+01
7.045356900000000167e+01
7.640533100000000388e+01
7.840103100000000325e+01
8.075745000000000573e+01
8.199657100000000298e+01
8.457473699999999894e+01
9.217480600000000379e+01
8.320494100000000515e+01
7.800682700000000125e+01
7.938110299999999597e+01
8.579862799999999368e+01
7.800790000000000646e+01
7.333738300000000265e+01
7.911447699999999372e+01
8.603090000000000259e+01
8.240735300000000052e+01
7.842854900000000384e+01
8.639222200000000385e+01
8.440638500000000022e+01
9.183963599999999872e+01
8.121793200000000468e+01
7.605676800000000526e+01
8.605208199999999863e+01
9.189599300000000426e+01
8.218498599999999499e+01
8.185198800000000574e+01
6.481225799999999992e+01
9.114065700000000447e+01
9.154709800000000541e+01
8.297484799999999439e+01
8.070942700000000514e+01
6.884356599999999560e+01
7.721345700000000534e+01
7.724094800000000305e+01
7.963975000000000648e+01
8.252028199999999458e+01
8.580129200000000367e+01
7.360368200000000627e+01
7.367441100000000631e+01
8.587479100000000187e+01
7.698623299999999858e+01
7.611970700000000534e+01
8.418114699999999573e+01
7.619081300000000567e+01
6.887665800000000615e+01
8.554695900000000108e+01
7.506663500000000511e+01
8.503449600000000430e+01
9.430967400000000112e+01
6.794045500000000004e+01
9.443264200000000130e+01
7.239842500000000314e+01
8.351207499999999584e+01
7.991180500000000109e+01
7.848496799999999496e+01
7.806647700000000611e+01
7.720636000000000365e+01
7.308809700000000475e+01
7.479172599999999704e+01
8.377435599999999738e+01
7.617484199999999817e+01
8.691627599999999632e+01
9.229690800000000195e+01
8.978047899999999970e+01
9.185111799999999960e+01
8.623107299999999498e+01
7.896007400000000587e+01
8.032850399999999524e+01
7.390130299999999863e+01
8.307721399999999790e+01
8.637746199999999419e+01
8.067741800000000296e+01
8.945993599999999901e+01
7.681277099999999791e+01
7.956002499999999600e+01
8.200392600000000698e+01
8.061099000000000103e+01
7.713179700000000594e+01
8.203294200000000558e+01
7.539101700000000505e+01
7.709672700000000134e+01
7.680643899999999746e+01
9.019049400000000105e+01
9.014833900000000710e+01
7.843994100000000458e+01
8.018520999999999788e+01
8.264282900000000609e+01
8.542353699999999606e+01
7.262521800000000383e+01
7.379739999999999611e+01
7.566884799999999700e+01
7.625745399999999563e+01
8.955622800000000439e+01
8.488194199999999512e+01
6.648060499999999706e+01
7.327779599999999505e+01
8.017726500000000556e+01
9.015120299999999531e+01
8.412129400000000601e+01
7.771539400000000342e+01
7.822678700000000163e+01
7.354719000000000051e+01
6.705800800000000095e+01
7.199123400000000572e+01
7.706883999999999446e+01
9.315957500000000380e+01
7.611362699999999393e+01
9.069550099999999304e+01
7.465044199999999819e+01
8.809611599999999498e+01
6.936753899999999362e+01
8.388715299999999786e+01
8.181725699999999790e+01
7.089926699999999471e+01
8.950353599999999687e+01
9.015789100000000644e+01
5.942610100000000273e+01
8.035604999999999620e+01
8.145677200000000084e+01
6.798859500000000367e+01
7.667488500000000329e+01
8.094895499999999799e+01
7.704771200000000420e+01
7.598983800000000599e+01
8.070872699999999611e+01
8.582199900000000525e+01
8.243845399999999302e+01
7.688017499999999416e+01
8.191404500000000155e+01
8.697392700000000332e+01
7.730256099999999719e+01
8.189076799999999423e+01
7.656094500000000380e+01
7.902159799999999734e+01
7.927007899999999552e+01
7.744046699999999817e+01
8.483057900000000018e+01
8.932576400000000660e+01
7.223225300000000004e+01
7.450357300000000293e+01
7.221337800000000584e+01
9.363082799999999395e+01
8.643010700000000668e+01
9.326522599999999841e+01
7.566615199999999675e+01
7.278359000000000378e+01
8.467825000000000557e+01
7.609150999999999954e+01
7.290454800000000546e+01
7.421007500000000334e+01
8.599765899999999874e+01
8.744390099999999677e+01
7.988691099999999778e+01
7.739455700000000604e+01
8.980446299999999837e+01
7.209307099999999480e+01
7.764198199999999872e+01
7.676802200000000198e+01
7.952104199999999423e+01
7.049362100000000453e+01
7.883956600000000492e+01
8.298635199999999656e+01
8.221529499999999757e+01
8.320946100000000456e+01
9.247450800000000015e+01
7.500069799999999987e+01
8.486525699999999972e+01
7.329105500000000006e+01
7.177238099999999577e+01
7.695078700000000538e+01
7.315585900000000663e+01
8.474216400000000249e+01
7.615857400000000155e+01
8.731008500000000083e+01
7.815749599999999475e+01
7.602064500000000180e+01
8.757765999999999451e+01
9.088721300000000269e+01
7.450903200000000481e+01
7.552513100000000179e+01
7.863334100000000149e+01
7.617113200000000006e+01
7.468332700000000557e+01
9.250239799999999946e+01
6.928940599999999961e+01
8.292815899999999374e+01
7.495193199999999933e+01
8.596219200000000171e+01
8.788639899999999727e+01
7.609653799999999535e+01
8.229743600000000470e+01
7.969136600000000215e+01
7.900522999999999740e+01
7.596132500000000221e+01
8.223256600000000560e+01
1.013494100000000060e+02
7.844656000000000518e+01
8.423084599999999966e+01
8.211538799999999583e+01
7.923437099999999589e+01
7.954574200000000417e+01
7.898753700000000322e+01
7.369429300000000183e+01
7.606891000000000247e+01
8.844344399999999951e+01
9.279517199999999377e+01
9.266916500000000667e+01
7.521362299999999834e+01
1.002944099999999992e+02
8.198827799999999399e+01
8.888905499999999904e+01
9.211180099999999982e+01
8.625979499999999689e+01
8.447182599999999297e+01
8.500447099999999523e+01
7.205821699999999908e+01
7.672433499999999640e+01
8.289395700000000033e+01
8.180675200000000302e+01
7.811686699999999917e+01
8.391738200000000347e+01
7.794304400000000044e+01
8.306261800000000051e+01
8.491965600000000336e+01
7.943156799999999862e+01
6.245022099999999909e+01
